# Frequency    Median Mag     Phase (Rad)    -1 Sigma Mag   -1 Sigma Phase +1 Sigma Mag   +1 Sigma Phase
+2.0000000e+01 +1.0054767e+00 -2.7121369e-02 +9.2141585e-01 -9.2943808e-02 +1.0895376e+00 +3.8701070e-02
+2.0125000e+01 +1.0051072e+00 -2.7058032e-02 +9.2107861e-01 -9.2914549e-02 +1.0891357e+00 +3.8798485e-02
+2.0250000e+01 +1.0047424e+00 -2.6990751e-02 +9.2074894e-01 -9.2883383e-02 +1.0887358e+00 +3.8901881e-02
+2.0375000e+01 +1.0043823e+00 -2.6919655e-02 +9.2042672e-01 -9.2850331e-02 +1.0883379e+00 +3.9011021e-02
+2.0500000e+01 +1.0040270e+00 -2.6844869e-02 +9.2011184e-01 -9.2815412e-02 +1.0879421e+00 +3.9125674e-02
+2.0625000e+01 +1.0036763e+00 -2.6766512e-02 +9.1980420e-01 -9.2778642e-02 +1.0875484e+00 +3.9245618e-02
+2.0750000e+01 +1.0033303e+00 -2.6684701e-02 +9.1950369e-01 -9.2740036e-02 +1.0871570e+00 +3.9370634e-02
+2.0875000e+01 +1.0029890e+00 -2.6599548e-02 +9.1921021e-01 -9.2699610e-02 +1.0867677e+00 +3.9500514e-02
+2.1000000e+01 +1.0026522e+00 -2.6511161e-02 +9.1892365e-01 -9.2657377e-02 +1.0863807e+00 +3.9635055e-02
+2.1125000e+01 +1.0023199e+00 -2.6419648e-02 +9.1864392e-01 -9.2613350e-02 +1.0859960e+00 +3.9774054e-02
+2.1250000e+01 +1.0019922e+00 -2.6325110e-02 +9.1837090e-01 -9.2567543e-02 +1.0856136e+00 +3.9917323e-02
+2.1375000e+01 +1.0016690e+00 -2.6227647e-02 +9.1810451e-01 -9.2519967e-02 +1.0852335e+00 +4.0064673e-02
+2.1500000e+01 +1.0013503e+00 -2.6127357e-02 +9.1784465e-01 -9.2470635e-02 +1.0848559e+00 +4.0215921e-02
+2.1625000e+01 +1.0010359e+00 -2.6024332e-02 +9.1759122e-01 -9.2419558e-02 +1.0844806e+00 +4.0370894e-02
+2.1750000e+01 +1.0007259e+00 -2.5918666e-02 +9.1734414e-01 -9.2366749e-02 +1.0841078e+00 +4.0529417e-02
+2.1875000e+01 +1.0004203e+00 -2.5810446e-02 +9.1710329e-01 -9.2312219e-02 +1.0837374e+00 +4.0691327e-02
+2.2000000e+01 +1.0001190e+00 -2.5699761e-02 +9.1686861e-01 -9.2255980e-02 +1.0833695e+00 +4.0856458e-02
+2.2125000e+01 +9.9982203e-01 -2.5586695e-02 +9.1664000e-01 -9.2198046e-02 +1.0830041e+00 +4.1024656e-02
+2.2250000e+01 +9.9952927e-01 -2.5471330e-02 +9.1641736e-01 -9.2138426e-02 +1.0826412e+00 +4.1195766e-02
+2.2375000e+01 +9.9924072e-01 -2.5353747e-02 +9.1620062e-01 -9.2077135e-02 +1.0822808e+00 +4.1369641e-02
+2.2500000e+01 +9.9895635e-01 -2.5234025e-02 +9.1598969e-01 -9.2014185e-02 +1.0819230e+00 +4.1546135e-02
+2.2625000e+01 +9.9867612e-01 -2.5112240e-02 +9.1578448e-01 -9.1949589e-02 +1.0815678e+00 +4.1725109e-02
+2.2750000e+01 +9.9840001e-01 -2.4988468e-02 +9.1558492e-01 -9.1883362e-02 +1.0812151e+00 +4.1906426e-02
+2.2875000e+01 +9.9812797e-01 -2.4862782e-02 +9.1539092e-01 -9.1815517e-02 +1.0808650e+00 +4.2089953e-02
+2.3000000e+01 +9.9785997e-01 -2.4735252e-02 +9.1520240e-01 -9.1746068e-02 +1.0805175e+00 +4.2275564e-02
+2.3125000e+01 +9.9759598e-01 -2.4605950e-02 +9.1501929e-01 -9.1675031e-02 +1.0801727e+00 +4.2463131e-02
+2.3250000e+01 +9.9733596e-01 -2.4474944e-02 +9.1484149e-01 -9.1602420e-02 +1.0798304e+00 +4.2652532e-02
+2.3375000e+01 +9.9707988e-01 -2.4342300e-02 +9.1466895e-01 -9.1528252e-02 +1.0794908e+00 +4.2843652e-02
+2.3500000e+01 +9.9682770e-01 -2.4208083e-02 +9.1450157e-01 -9.1452541e-02 +1.0791538e+00 +4.3036375e-02
+2.3625000e+01 +9.9657940e-01 -2.4072359e-02 +9.1433929e-01 -9.1375306e-02 +1.0788195e+00 +4.3230588e-02
+2.3750000e+01 +9.9633493e-01 -2.3935188e-02 +9.1418204e-01 -9.1296562e-02 +1.0784878e+00 +4.3426186e-02
+2.3875000e+01 +9.9609426e-01 -2.3796634e-02 +9.1402973e-01 -9.1216329e-02 +1.0781588e+00 +4.3623061e-02
+2.4000000e+01 +9.9585736e-01 -2.3656754e-02 +9.1388230e-01 -9.1134622e-02 +1.0778324e+00 +4.3821114e-02
+2.4125000e+01 +9.9562420e-01 -2.3515609e-02 +9.1373967e-01 -9.1051461e-02 +1.0775087e+00 +4.4020243e-02
+2.4250000e+01 +9.9539474e-01 -2.3373256e-02 +9.1360178e-01 -9.0966865e-02 +1.0771877e+00 +4.4220353e-02
+2.4375000e+01 +9.9516894e-01 -2.3229750e-02 +9.1346855e-01 -9.0880853e-02 +1.0768693e+00 +4.4421353e-02
+2.4500000e+01 +9.9494678e-01 -2.3085147e-02 +9.1333991e-01 -9.0793443e-02 +1.0765537e+00 +4.4623149e-02
+2.4625000e+01 +9.9472822e-01 -2.2939500e-02 +9.1321580e-01 -9.0704657e-02 +1.0762406e+00 +4.4825657e-02
+2.4750000e+01 +9.9451322e-01 -2.2792863e-02 +9.1309615e-01 -9.0614515e-02 +1.0759303e+00 +4.5028789e-02
+2.4875000e+01 +9.9430175e-01 -2.2645286e-02 +9.1298089e-01 -9.0523036e-02 +1.0756226e+00 +4.5232464e-02
+2.5000000e+01 +9.9409378e-01 -2.2496821e-02 +9.1286996e-01 -9.0430243e-02 +1.0753176e+00 +4.5436601e-02
+2.5125000e+01 +9.9388927e-01 -2.2347516e-02 +9.1276328e-01 -9.0336156e-02 +1.0750153e+00 +4.5641124e-02
+2.5250000e+01 +9.9368820e-01 -2.2197421e-02 +9.1266080e-01 -9.0240798e-02 +1.0747156e+00 +4.5845956e-02
+2.5375000e+01 +9.9349052e-01 -2.2046581e-02 +9.1256245e-01 -9.0144188e-02 +1.0744186e+00 +4.6051026e-02
+2.5500000e+01 +9.9329620e-01 -2.1895045e-02 +9.1246817e-01 -9.0046352e-02 +1.0741242e+00 +4.6256262e-02
+2.5625000e+01 +9.9310522e-01 -2.1742856e-02 +9.1237789e-01 -8.9947310e-02 +1.0738325e+00 +4.6461598e-02
+2.5750000e+01 +9.9291752e-01 -2.1590060e-02 +9.1229155e-01 -8.9847086e-02 +1.0735435e+00 +4.6666966e-02
+2.5875000e+01 +9.9273309e-01 -2.1436699e-02 +9.1220909e-01 -8.9745702e-02 +1.0732571e+00 +4.6872304e-02
+2.6000000e+01 +9.9255190e-01 -2.1282816e-02 +9.1213045e-01 -8.9643180e-02 +1.0729733e+00 +4.7077548e-02
+2.6125000e+01 +9.9237389e-01 -2.1128453e-02 +9.1205557e-01 -8.9539546e-02 +1.0726922e+00 +4.7282640e-02
+2.6250000e+01 +9.9219905e-01 -2.0973649e-02 +9.1198439e-01 -8.9434820e-02 +1.0724137e+00 +4.7487522e-02
+2.6375000e+01 +9.9202734e-01 -2.0818445e-02 +9.1191685e-01 -8.9329028e-02 +1.0721378e+00 +4.7692138e-02
+2.6500000e+01 +9.9185873e-01 -2.0662880e-02 +9.1185289e-01 -8.9222194e-02 +1.0718646e+00 +4.7896434e-02
+2.6625000e+01 +9.9169318e-01 -2.0506991e-02 +9.1179245e-01 -8.9114339e-02 +1.0715939e+00 +4.8100357e-02
+2.6750000e+01 +9.9153066e-01 -2.0350815e-02 +9.1173548e-01 -8.9005489e-02 +1.0713258e+00 +4.8303859e-02
+2.6875000e+01 +9.9137113e-01 -2.0194389e-02 +9.1168191e-01 -8.8895668e-02 +1.0710604e+00 +4.8506890e-02
+2.7000000e+01 +9.9121457e-01 -2.0037747e-02 +9.1163170e-01 -8.8784899e-02 +1.0707974e+00 +4.8709405e-02
+2.7125000e+01 +9.9106095e-01 -1.9880925e-02 +9.1158479e-01 -8.8673206e-02 +1.0705371e+00 +4.8911356e-02
+2.7250000e+01 +9.9091022e-01 -1.9723955e-02 +9.1154112e-01 -8.8560613e-02 +1.0702793e+00 +4.9112703e-02
+2.7375000e+01 +9.9076236e-01 -1.9566871e-02 +9.1150063e-01 -8.8447144e-02 +1.0700241e+00 +4.9313402e-02
+2.7500000e+01 +9.9061734e-01 -1.9409705e-02 +9.1146328e-01 -8.8332824e-02 +1.0697714e+00 +4.9513414e-02
+2.7625000e+01 +9.9047512e-01 -1.9252487e-02 +9.1142901e-01 -8.8217675e-02 +1.0695212e+00 +4.9712701e-02
+2.7750000e+01 +9.9033567e-01 -1.9095250e-02 +9.1139777e-01 -8.8101723e-02 +1.0692736e+00 +4.9911223e-02
+2.7875000e+01 +9.9019895e-01 -1.8938021e-02 +9.1136951e-01 -8.7984989e-02 +1.0690284e+00 +5.0108947e-02
+2.8000000e+01 +9.9006495e-01 -1.8780830e-02 +9.1134417e-01 -8.7867499e-02 +1.0687857e+00 +5.0305839e-02
+2.8125000e+01 +9.8993362e-01 -1.8623706e-02 +9.1132170e-01 -8.7749276e-02 +1.0685455e+00 +5.0501864e-02
+2.8250000e+01 +9.8980493e-01 -1.8466676e-02 +9.1130205e-01 -8.7630344e-02 +1.0683078e+00 +5.0696992e-02
+2.8375000e+01 +9.8967885e-01 -1.8309767e-02 +9.1128518e-01 -8.7510726e-02 +1.0680725e+00 +5.0891192e-02
+2.8500000e+01 +9.8955536e-01 -1.8153005e-02 +9.1127103e-01 -8.7390446e-02 +1.0678397e+00 +5.1084436e-02
+2.8625000e+01 +9.8943441e-01 -1.7996414e-02 +9.1125955e-01 -8.7269525e-02 +1.0676093e+00 +5.1276697e-02
+2.8750000e+01 +9.8931598e-01 -1.7840021e-02 +9.1125070e-01 -8.7147988e-02 +1.0673813e+00 +5.1467946e-02
+2.8875000e+01 +9.8920004e-01 -1.7683849e-02 +9.1124443e-01 -8.7025858e-02 +1.0671556e+00 +5.1658160e-02
+2.9000000e+01 +9.8908655e-01 -1.7527921e-02 +9.1124070e-01 -8.6903157e-02 +1.0669324e+00 +5.1847315e-02
+2.9125000e+01 +9.8897550e-01 -1.7372261e-02 +9.1123944e-01 -8.6779908e-02 +1.0667115e+00 +5.2035386e-02
+2.9250000e+01 +9.8886684e-01 -1.7216889e-02 +9.1124063e-01 -8.6656132e-02 +1.0664930e+00 +5.2222354e-02
+2.9375000e+01 +9.8876054e-01 -1.7061829e-02 +9.1124421e-01 -8.6531853e-02 +1.0662769e+00 +5.2408195e-02
+2.9500000e+01 +9.8865658e-01 -1.6907100e-02 +9.1125014e-01 -8.6407092e-02 +1.0660630e+00 +5.2592892e-02
+2.9625000e+01 +9.8855492e-01 -1.6752723e-02 +9.1125838e-01 -8.6281871e-02 +1.0658515e+00 +5.2776425e-02
+2.9750000e+01 +9.8845554e-01 -1.6598717e-02 +9.1126888e-01 -8.6156211e-02 +1.0656422e+00 +5.2958777e-02
+2.9875000e+01 +9.8835841e-01 -1.6445101e-02 +9.1128159e-01 -8.6030133e-02 +1.0654352e+00 +5.3139931e-02
+3.0000000e+01 +9.8826350e-01 -1.6291895e-02 +9.1129649e-01 -8.5903660e-02 +1.0652305e+00 +5.3319870e-02
+3.0125000e+01 +9.8817078e-01 -1.6139115e-02 +9.1131351e-01 -8.5776811e-02 +1.0650280e+00 +5.3498581e-02
+3.0250000e+01 +9.8808021e-01 -1.5986779e-02 +9.1133263e-01 -8.5649608e-02 +1.0648278e+00 +5.3676050e-02
+3.0375000e+01 +9.8799178e-01 -1.5834904e-02 +9.1135380e-01 -8.5522070e-02 +1.0646298e+00 +5.3852262e-02
+3.0500000e+01 +9.8790545e-01 -1.5683507e-02 +9.1137698e-01 -8.5394218e-02 +1.0644339e+00 +5.4027204e-02
+3.0625000e+01 +9.8782119e-01 -1.5532602e-02 +9.1140213e-01 -8.5266071e-02 +1.0642403e+00 +5.4200867e-02
+3.0750000e+01 +9.8773899e-01 -1.5382205e-02 +9.1142921e-01 -8.5137649e-02 +1.0640488e+00 +5.4373239e-02
+3.0875000e+01 +9.8765880e-01 -1.5232330e-02 +9.1145818e-01 -8.5008971e-02 +1.0638594e+00 +5.4544311e-02
+3.1000000e+01 +9.8758060e-01 -1.5082993e-02 +9.1148901e-01 -8.4880058e-02 +1.0636722e+00 +5.4714072e-02
+3.1125000e+01 +9.8750437e-01 -1.4934206e-02 +9.1152166e-01 -8.4750927e-02 +1.0634871e+00 +5.4882515e-02
+3.1250000e+01 +9.8743007e-01 -1.4785983e-02 +9.1155609e-01 -8.4621596e-02 +1.0633041e+00 +5.5049630e-02
+3.1375000e+01 +9.8735769e-01 -1.4638336e-02 +9.1159225e-01 -8.4492084e-02 +1.0631231e+00 +5.5215412e-02
+3.1500000e+01 +9.8728719e-01 -1.4491278e-02 +9.1163013e-01 -8.4362410e-02 +1.0629443e+00 +5.5379854e-02
+3.1625000e+01 +9.8721855e-01 -1.4344821e-02 +9.1166967e-01 -8.4232590e-02 +1.0627674e+00 +5.5542948e-02
+3.1750000e+01 +9.8715174e-01 -1.4198975e-02 +9.1171086e-01 -8.4102642e-02 +1.0625926e+00 +5.5704692e-02
+3.1875000e+01 +9.8708673e-01 -1.4053752e-02 +9.1175364e-01 -8.3972583e-02 +1.0624198e+00 +5.5865079e-02
+3.2000000e+01 +9.8702351e-01 -1.3909163e-02 +9.1179799e-01 -8.3842431e-02 +1.0622490e+00 +5.6024105e-02
+3.2125000e+01 +9.8696204e-01 -1.3765216e-02 +9.1184387e-01 -8.3712200e-02 +1.0620802e+00 +5.6181768e-02
+3.2250000e+01 +9.8690230e-01 -1.3621923e-02 +9.1189126e-01 -8.3581909e-02 +1.0619133e+00 +5.6338063e-02
+3.2375000e+01 +9.8684427e-01 -1.3479292e-02 +9.1194011e-01 -8.3451572e-02 +1.0617484e+00 +5.6492988e-02
+3.2500000e+01 +9.8678791e-01 -1.3337333e-02 +9.1199040e-01 -8.3321207e-02 +1.0615854e+00 +5.6646541e-02
+3.2625000e+01 +9.8673322e-01 -1.3196053e-02 +9.1204209e-01 -8.3190827e-02 +1.0614243e+00 +5.6798721e-02
+3.2750000e+01 +9.8668015e-01 -1.3055461e-02 +9.1209515e-01 -8.3060448e-02 +1.0612651e+00 +5.6949526e-02
+3.2875000e+01 +9.8662869e-01 -1.2915564e-02 +9.1214956e-01 -8.2930085e-02 +1.0611078e+00 +5.7098957e-02
+3.3000000e+01 +9.8657881e-01 -1.2776371e-02 +9.1220527e-01 -8.2799753e-02 +1.0609524e+00 +5.7247011e-02
+3.3125000e+01 +9.8653050e-01 -1.2637887e-02 +9.1226227e-01 -8.2669464e-02 +1.0607987e+00 +5.7393690e-02
+3.3250000e+01 +9.8648372e-01 -1.2500121e-02 +9.1232052e-01 -8.2539236e-02 +1.0606469e+00 +5.7538994e-02
+3.3375000e+01 +9.8643846e-01 -1.2363077e-02 +9.1238000e-01 -8.2409079e-02 +1.0604969e+00 +5.7682925e-02
+3.3500000e+01 +9.8639469e-01 -1.2226763e-02 +9.1244067e-01 -8.2279009e-02 +1.0603487e+00 +5.7825483e-02
+3.3625000e+01 +9.8635239e-01 -1.2091183e-02 +9.1250251e-01 -8.2149036e-02 +1.0602023e+00 +5.7966670e-02
+3.3750000e+01 +9.8631154e-01 -1.1956344e-02 +9.1256549e-01 -8.2019177e-02 +1.0600576e+00 +5.8106489e-02
+3.3875000e+01 +9.8627211e-01 -1.1822250e-02 +9.1262958e-01 -8.1889441e-02 +1.0599146e+00 +5.8244941e-02
+3.4000000e+01 +9.8623408e-01 -1.1688907e-02 +9.1269476e-01 -8.1759844e-02 +1.0597734e+00 +5.8382030e-02
+3.4125000e+01 +9.8619744e-01 -1.1556318e-02 +9.1276100e-01 -8.1630394e-02 +1.0596339e+00 +5.8517758e-02
+3.4250000e+01 +9.8616216e-01 -1.1424488e-02 +9.1282827e-01 -8.1501105e-02 +1.0594960e+00 +5.8652129e-02
+3.4375000e+01 +9.8612821e-01 -1.1293422e-02 +9.1289655e-01 -8.1371989e-02 +1.0593599e+00 +5.8785145e-02
+3.4500000e+01 +9.8609559e-01 -1.1163122e-02 +9.1296582e-01 -8.1243056e-02 +1.0592254e+00 +5.8916812e-02
+3.4625000e+01 +9.8606427e-01 -1.1033592e-02 +9.1303605e-01 -8.1114317e-02 +1.0590925e+00 +5.9047133e-02
+3.4750000e+01 +9.8603422e-01 -1.0904836e-02 +9.1310721e-01 -8.0985784e-02 +1.0589612e+00 +5.9176112e-02
+3.4875000e+01 +9.8600544e-01 -1.0776856e-02 +9.1317929e-01 -8.0857467e-02 +1.0588316e+00 +5.9303755e-02
+3.5000000e+01 +9.8597789e-01 -1.0649655e-02 +9.1325225e-01 -8.0729375e-02 +1.0587035e+00 +5.9430065e-02
+3.5125000e+01 +9.8595156e-01 -1.0523236e-02 +9.1332608e-01 -8.0601520e-02 +1.0585770e+00 +5.9555048e-02
+3.5250000e+01 +9.8592643e-01 -1.0397601e-02 +9.1340076e-01 -8.0473910e-02 +1.0584521e+00 +5.9678708e-02
+3.5375000e+01 +9.8590248e-01 -1.0272751e-02 +9.1347626e-01 -8.0346555e-02 +1.0583287e+00 +5.9801053e-02
+3.5500000e+01 +9.8587970e-01 -1.0148689e-02 +9.1355255e-01 -8.0219465e-02 +1.0582068e+00 +5.9922087e-02
+3.5625000e+01 +9.8585806e-01 -1.0025417e-02 +9.1362963e-01 -8.0092649e-02 +1.0580865e+00 +6.0041815e-02
+3.5750000e+01 +9.8583754e-01 -9.9029350e-03 +9.1370746e-01 -7.9966114e-02 +1.0579676e+00 +6.0160244e-02
+3.5875000e+01 +9.8581814e-01 -9.7812450e-03 +9.1378604e-01 -7.9839870e-02 +1.0578502e+00 +6.0277380e-02
+3.6000000e+01 +9.8579982e-01 -9.6603470e-03 +9.1386532e-01 -7.9713924e-02 +1.0577343e+00 +6.0393230e-02
+3.6125000e+01 +9.8578257e-01 -9.5402440e-03 +9.1394531e-01 -7.9588287e-02 +1.0576198e+00 +6.0507799e-02
+3.6250000e+01 +9.8576638e-01 -9.4209350e-03 +9.1402597e-01 -7.9462964e-02 +1.0575068e+00 +6.0621094e-02
+3.6375000e+01 +9.8575122e-01 -9.3024210e-03 +9.1410730e-01 -7.9337963e-02 +1.0573952e+00 +6.0733121e-02
+3.6500000e+01 +9.8573709e-01 -9.1847020e-03 +9.1418926e-01 -7.9213293e-02 +1.0572849e+00 +6.0843889e-02
+3.6625000e+01 +9.8572396e-01 -9.0677780e-03 +9.1427184e-01 -7.9088959e-02 +1.0571761e+00 +6.0953403e-02
+3.6750000e+01 +9.8571182e-01 -8.9516490e-03 +9.1435503e-01 -7.8964969e-02 +1.0570686e+00 +6.1061671e-02
+3.6875000e+01 +9.8570064e-01 -8.8363160e-03 +9.1443881e-01 -7.8841331e-02 +1.0569625e+00 +6.1168699e-02
+3.7000000e+01 +9.8569043e-01 -8.7217770e-03 +9.1452315e-01 -7.8718049e-02 +1.0568577e+00 +6.1274495e-02
+3.7125000e+01 +9.8568115e-01 -8.6080330e-03 +9.1460804e-01 -7.8595132e-02 +1.0567543e+00 +6.1379066e-02
+3.7250000e+01 +9.8567279e-01 -8.4950830e-03 +9.1469347e-01 -7.8472585e-02 +1.0566521e+00 +6.1482419e-02
+3.7375000e+01 +9.8566535e-01 -8.3829250e-03 +9.1477941e-01 -7.8350412e-02 +1.0565513e+00 +6.1584562e-02
+3.7500000e+01 +9.8565879e-01 -8.2715590e-03 +9.1486586e-01 -7.8228622e-02 +1.0564517e+00 +6.1685504e-02
+3.7625000e+01 +9.8565312e-01 -8.1609850e-03 +9.1495279e-01 -7.8107219e-02 +1.0563534e+00 +6.1785249e-02
+3.7750000e+01 +9.8564831e-01 -8.0512000e-03 +9.1504019e-01 -7.7986208e-02 +1.0562564e+00 +6.1883808e-02
+3.7875000e+01 +9.8564434e-01 -7.9422050e-03 +9.1512805e-01 -7.7865596e-02 +1.0561606e+00 +6.1981186e-02
+3.8000000e+01 +9.8564121e-01 -7.8339960e-03 +9.1521635e-01 -7.7745385e-02 +1.0560661e+00 +6.2077393e-02
+3.8125000e+01 +9.8563890e-01 -7.7265740e-03 +9.1530507e-01 -7.7625583e-02 +1.0559727e+00 +6.2172435e-02
+3.8250000e+01 +9.8563740e-01 -7.6199350e-03 +9.1539421e-01 -7.7506192e-02 +1.0558806e+00 +6.2266322e-02
+3.8375000e+01 +9.8563669e-01 -7.5140790e-03 +9.1548374e-01 -7.7387217e-02 +1.0557896e+00 +6.2359059e-02
+3.8500000e+01 +9.8563675e-01 -7.4090040e-03 +9.1557365e-01 -7.7268664e-02 +1.0556999e+00 +6.2450656e-02
+3.8625000e+01 +9.8563758e-01 -7.3047080e-03 +9.1566393e-01 -7.7150537e-02 +1.0556112e+00 +6.2541121e-02
+3.8750000e+01 +9.8563917e-01 -7.2011890e-03 +9.1575457e-01 -7.7032838e-02 +1.0555238e+00 +6.2630460e-02
+3.8875000e+01 +9.8564149e-01 -7.0984450e-03 +9.1584555e-01 -7.6915573e-02 +1.0554374e+00 +6.2718683e-02
+3.9000000e+01 +9.8564454e-01 -6.9964740e-03 +9.1593686e-01 -7.6798744e-02 +1.0553522e+00 +6.2805796e-02
+3.9125000e+01 +9.8564830e-01 -6.8952730e-03 +9.1602849e-01 -7.6682355e-02 +1.0552681e+00 +6.2891809e-02
+3.9250000e+01 +9.8565277e-01 -6.7948400e-03 +9.1612042e-01 -7.6566409e-02 +1.0551851e+00 +6.2976729e-02
+3.9375000e+01 +9.8565792e-01 -6.6951730e-03 +9.1621264e-01 -7.6450910e-02 +1.0551032e+00 +6.3060564e-02
+3.9500000e+01 +9.8566375e-01 -6.5962700e-03 +9.1630515e-01 -7.6335861e-02 +1.0550224e+00 +6.3143321e-02
+3.9625000e+01 +9.8567025e-01 -6.4981270e-03 +9.1639792e-01 -7.6221265e-02 +1.0549426e+00 +6.3225011e-02
+3.9750000e+01 +9.8567739e-01 -6.4007420e-03 +9.1649096e-01 -7.6107123e-02 +1.0548638e+00 +6.3305639e-02
+3.9875000e+01 +9.8568518e-01 -6.3041140e-03 +9.1658424e-01 -7.5993441e-02 +1.0547861e+00 +6.3385213e-02
+4.0000000e+01 +9.8569360e-01 -6.2082370e-03 +9.1667775e-01 -7.5880218e-02 +1.0547095e+00 +6.3463744e-02
+4.0125000e+01 +9.8570264e-01 -6.1131110e-03 +9.1677149e-01 -7.5767458e-02 +1.0546338e+00 +6.3541236e-02
+4.0250000e+01 +9.8571229e-01 -6.0187330e-03 +9.1686545e-01 -7.5655165e-02 +1.0545591e+00 +6.3617699e-02
+4.0375000e+01 +9.8572253e-01 -5.9250980e-03 +9.1695961e-01 -7.5543337e-02 +1.0544855e+00 +6.3693141e-02
+4.0500000e+01 +9.8573336e-01 -5.8322050e-03 +9.1705396e-01 -7.5431980e-02 +1.0544128e+00 +6.3767570e-02
+4.0625000e+01 +9.8574477e-01 -5.7400500e-03 +9.1714850e-01 -7.5321093e-02 +1.0543410e+00 +6.3840993e-02
+4.0750000e+01 +9.8575674e-01 -5.6486310e-03 +9.1724322e-01 -7.5210679e-02 +1.0542703e+00 +6.3913417e-02
+4.0875000e+01 +9.8576926e-01 -5.5579440e-03 +9.1733809e-01 -7.5100740e-02 +1.0542004e+00 +6.3984852e-02
+4.1000000e+01 +9.8578233e-01 -5.4679860e-03 +9.1743313e-01 -7.4991277e-02 +1.0541315e+00 +6.4055305e-02
+4.1125000e+01 +9.8579594e-01 -5.3787540e-03 +9.1752831e-01 -7.4882292e-02 +1.0540636e+00 +6.4124784e-02
+4.1250000e+01 +9.8581007e-01 -5.2902450e-03 +9.1762363e-01 -7.4773785e-02 +1.0539965e+00 +6.4193295e-02
+4.1375000e+01 +9.8582471e-01 -5.2024550e-03 +9.1771907e-01 -7.4665758e-02 +1.0539304e+00 +6.4260848e-02
+4.1500000e+01 +9.8583986e-01 -5.1153810e-03 +9.1781464e-01 -7.4558212e-02 +1.0538651e+00 +6.4327450e-02
+4.1625000e+01 +9.8585551e-01 -5.0290210e-03 +9.1791032e-01 -7.4451149e-02 +1.0538007e+00 +6.4393107e-02
+4.1750000e+01 +9.8587165e-01 -4.9433700e-03 +9.1800611e-01 -7.4344568e-02 +1.0537372e+00 +6.4457828e-02
+4.1875000e+01 +9.8588826e-01 -4.8584250e-03 +9.1810199e-01 -7.4238471e-02 +1.0536745e+00 +6.4521621e-02
+4.2000000e+01 +9.8590534e-01 -4.7741840e-03 +9.1819796e-01 -7.4132859e-02 +1.0536127e+00 +6.4584491e-02
+4.2125000e+01 +9.8592289e-01 -4.6906410e-03 +9.1829401e-01 -7.4027731e-02 +1.0535518e+00 +6.4646449e-02
+4.2250000e+01 +9.8594088e-01 -4.6077950e-03 +9.1839013e-01 -7.3923090e-02 +1.0534916e+00 +6.4707500e-02
+4.2375000e+01 +9.8595932e-01 -4.5256410e-03 +9.1848632e-01 -7.3818934e-02 +1.0534323e+00 +6.4767652e-02
+4.2500000e+01 +9.8597819e-01 -4.4441760e-03 +9.1858257e-01 -7.3715264e-02 +1.0533738e+00 +6.4826912e-02
+4.2625000e+01 +9.8599750e-01 -4.3633970e-03 +9.1867887e-01 -7.3612081e-02 +1.0533161e+00 +6.4885287e-02
+4.2750000e+01 +9.8601721e-01 -4.2832990e-03 +9.1877521e-01 -7.3509384e-02 +1.0532592e+00 +6.4942786e-02
+4.2875000e+01 +9.8603734e-01 -4.2038810e-03 +9.1887159e-01 -7.3407176e-02 +1.0532031e+00 +6.4999414e-02
+4.3000000e+01 +9.8605787e-01 -4.1251370e-03 +9.1896800e-01 -7.3305453e-02 +1.0531477e+00 +6.5055179e-02
+4.3125000e+01 +9.8607880e-01 -4.0470640e-03 +9.1906444e-01 -7.3204216e-02 +1.0530932e+00 +6.5110088e-02
+4.3250000e+01 +9.8610011e-01 -3.9696600e-03 +9.1916090e-01 -7.3103468e-02 +1.0530393e+00 +6.5164148e-02
+4.3375000e+01 +9.8612181e-01 -3.8929190e-03 +9.1925736e-01 -7.3003205e-02 +1.0529862e+00 +6.5217367e-02
+4.3500000e+01 +9.8614387e-01 -3.8168390e-03 +9.1935384e-01 -7.2903428e-02 +1.0529339e+00 +6.5269750e-02
