#freq	 asd
20.0	 4.508758143879532e-22
20.25	 4.269408624153935e-22
20.5	 4.0439522746936565e-22
20.75	 3.8299869451474636e-22
21.0	 3.628622328101948e-22
21.25	 3.438640719819388e-22
21.5	 3.259570523857399e-22
21.75	 3.090776601438545e-22
22.0	 2.9311090051378167e-22
22.25	 2.7804226297453416e-22
22.5	 2.6383233312086676e-22
22.75	 2.504426081959697e-22
23.0	 2.3783397570574313e-22
23.25	 2.258948870603317e-22
23.5	 2.1463527203141615e-22
23.75	 2.0398517102966087e-22
24.0	 1.9393993915643058e-22
24.25	 1.8441000515156438e-22
24.5	 1.7542462768950088e-22
24.75	 1.669577790939973e-22
25.0	 1.589355215173751e-22
25.25	 1.513385278109973e-22
25.5	 1.441755873925957e-22
25.75	 1.3741524660677214e-22
26.0	 1.31020227445994e-22
26.25	 1.2497879820193504e-22
26.5	 1.192581234130405e-22
26.75	 1.1383914089626643e-22
27.0	 1.0873476904835914e-22
27.25	 1.0390332044742363e-22
27.5	 9.933327740490595e-23
27.75	 9.500894694711651e-23
28.0	 9.091672013441752e-23
28.25	 8.705630362012851e-23
28.5	 8.340113908095021e-23
28.75	 7.994029021713644e-23
29.0	 7.665572385673492e-23
29.25	 7.354454432519111e-23
29.5	 7.060651528010712e-23
29.75	 6.781338363479587e-23
30.0	 6.517131270735614e-23
30.25	 6.267184375778329e-23
30.5	 6.029900496691467e-23
30.75	 5.80495478018563e-23
31.0	 5.591900392532042e-23
31.25	 5.390018552843766e-23
31.5	 5.1982593240430015e-23
31.75	 5.0167967867953354e-23
32.0	 4.844667171230651e-23
32.25	 4.6816343300176703e-23
32.5	 4.527786434892883e-23
32.75	 4.382311034146253e-23
33.0	 4.2435833914275794e-23
33.25	 4.1122682305511153e-23
33.5	 3.987530564146186e-23
33.75	 3.8685268513996386e-23
34.0	 3.755449373909865e-23
34.25	 3.648225596094628e-23
34.5	 3.546244492417295e-23
34.75	 3.4493187733232197e-23
35.0	 3.357134194517699e-23
35.25	 3.2693118541980667e-23
35.5	 3.18549054307182e-23
35.75	 3.104971819517852e-23
36.0	 3.02801915449688e-23
36.25	 2.95494500794854e-23
36.5	 2.884978336140499e-23
36.75	 2.818270746397514e-23
37.0	 2.754369256290812e-23
37.25	 2.693538564787963e-23
37.5	 2.6348814015055784e-23
37.75	 2.5788660298666155e-23
38.0	 2.5252623626071013e-23
38.25	 2.4738633753705964e-23
38.5	 2.4246752359852236e-23
38.75	 2.377666923688009e-23
39.0	 2.332498660235414e-23
39.25	 2.2893448844593074e-23
39.5	 2.2478100453552564e-23
39.75	 2.2078485002372785e-23
40.0	 2.169518379733161e-23
40.25	 2.1335791525040733e-23
40.5	 2.0998047528282242e-23
40.75	 2.067783837832185e-23
41.0	 2.0359923870191657e-23
41.25	 2.005377769897732e-23
41.5	 1.9763463765241153e-23
41.75	 1.9488637715345834e-23
42.0	 1.923526708938558e-23
42.25	 1.900402588926883e-23
42.5	 1.8788613573119226e-23
42.75	 1.861526255522602e-23
43.0	 1.850113510031209e-23
43.25	 1.8436309283584932e-23
43.5	 1.8451070429652583e-23
43.75	 1.855185974504982e-23
44.0	 1.8786870415266084e-23
44.25	 1.9169454869661788e-23
44.5	 1.991711575504847e-23
44.75	 2.1331994749671208e-23
45.0	 2.4167333324138184e-23
45.25	 2.8674989102003157e-23
45.5	 3.7250302012198505e-23
45.75	 5.61423636837638e-23
46.0	 9.916526609655218e-23
46.25	 5.626757503216217e-23
46.5	 3.568571142628377e-23
46.75	 2.68740581230301e-23
47.0	 2.2110811834937224e-23
47.25	 1.9149947780607654e-23
47.5	 1.7507341317287444e-23
47.75	 1.651467529199409e-23
48.0	 1.585684394827672e-23
48.25	 1.5404609699697038e-23
48.5	 1.508734569100874e-23
48.75	 1.4855217938488818e-23
49.0	 1.468136574028452e-23
49.25	 1.4530450784473275e-23
49.5	 1.4386156540229916e-23
49.75	 1.4277937526127505e-23
50.0	 1.41964079963912e-23
50.25	 1.4119047418292778e-23
50.5	 1.4044322696378063e-23
50.75	 1.3972848671620257e-23
51.0	 1.3902625651293356e-23
51.25	 1.3836184445142384e-23
51.5	 1.3771601214092718e-23
51.75	 1.3708300405228944e-23
52.0	 1.364760052170344e-23
52.25	 1.3588175006232442e-23
52.5	 1.3530631914289886e-23
52.75	 1.3475403519004542e-23
53.0	 1.3421587089461516e-23
53.25	 1.336934927361837e-23
53.5	 1.3318840039583027e-23
53.75	 1.326860957297335e-23
54.0	 1.3220060514233662e-23
54.25	 1.3172262523955405e-23
54.5	 1.3125452373156516e-23
54.75	 1.307965978150808e-23
55.0	 1.3034684499442248e-23
55.25	 1.2990958394206333e-23
55.5	 1.2947200469599596e-23
55.75	 1.2904069125667299e-23
56.0	 1.2861454039104598e-23
56.25	 1.2818950815101836e-23
56.5	 1.2776854072892905e-23
56.75	 1.2735010797011521e-23
57.0	 1.2693581055005715e-23
57.25	 1.2652430596529664e-23
57.5	 1.2611978433219745e-23
57.75	 1.2570799497247579e-23
58.0	 1.253000399042235e-23
58.25	 1.2488714905866016e-23
58.5	 1.2447610212406234e-23
58.75	 1.2407820114750214e-23
59.0	 1.2368225418385615e-23
59.25	 1.2328604949466099e-23
59.5	 1.229129773457628e-23
59.75	 1.2251020365667506e-23
60.0	 1.2211572380328423e-23
60.25	 1.2172818079639571e-23
60.5	 1.2134104828952155e-23
60.75	 1.2096342422401906e-23
61.0	 1.205844102693213e-23
61.25	 1.202108564148846e-23
61.5	 1.1983926735423577e-23
61.75	 1.1947280025177278e-23
62.0	 1.1910562539191841e-23
62.25	 1.1874742102462689e-23
62.5	 1.1838496526164123e-23
62.75	 1.180328344148356e-23
63.0	 1.1768241160003478e-23
63.25	 1.1733008991729274e-23
63.5	 1.1698418696558949e-23
63.75	 1.166394015759683e-23
64.0	 1.1630219258466281e-23
64.25	 1.1596766790791302e-23
64.5	 1.1563693181678594e-23
64.75	 1.1530958329644593e-23
65.0	 1.1498282480440285e-23
65.25	 1.1465993197276893e-23
65.5	 1.1433940703012238e-23
65.75	 1.1401885808935291e-23
66.0	 1.1369828494748722e-23
66.25	 1.1338496372976445e-23
66.5	 1.1306878437482203e-23
66.75	 1.1275836997757639e-23
67.0	 1.1245110048372137e-23
67.25	 1.1214945385511246e-23
67.5	 1.1184900535990473e-23
67.75	 1.1154685114336486e-23
68.0	 1.1124612352796839e-23
68.25	 1.1095426985925327e-23
68.5	 1.1066119464383167e-23
68.75	 1.1037119189353714e-23
69.0	 1.1007883538628123e-23
69.25	 1.0979275932410115e-23
69.5	 1.0950913203929615e-23
69.75	 1.0922705708751839e-23
70.0	 1.089410390991384e-23
70.25	 1.0865702922498848e-23
70.5	 1.0838173277817624e-23
70.75	 1.081085103033059e-23
71.0	 1.078359865722014e-23
71.25	 1.0756556140326699e-23
71.5	 1.073009785603095e-23
71.75	 1.0703644239229926e-23
72.0	 1.0677312395916867e-23
72.25	 1.0651431828632243e-23
72.5	 1.0625299995764825e-23
72.75	 1.0599339602069556e-23
73.0	 1.0573599198002542e-23
73.25	 1.0548317401367859e-23
73.5	 1.0523592542473316e-23
73.75	 1.0498214133842003e-23
74.0	 1.0473084550408252e-23
74.25	 1.0448803759282686e-23
74.5	 1.0424730212336433e-23
74.75	 1.0400721128844865e-23
75.0	 1.0377041967728568e-23
75.25	 1.0353815721752053e-23
75.5	 1.033046465557092e-23
75.75	 1.0306915154399981e-23
76.0	 1.0284089653440406e-23
76.25	 1.0260068225894017e-23
76.5	 1.0236942903035065e-23
76.75	 1.0213447018514366e-23
77.0	 1.0190215895652065e-23
77.25	 1.0166956280027962e-23
77.5	 1.0143988367501216e-23
77.75	 1.0121882236027052e-23
78.0	 1.0098985097523414e-23
78.25	 1.0077326034221579e-23
78.5	 1.0055073346326222e-23
78.75	 1.0033668322203998e-23
79.0	 1.0012642008980447e-23
79.25	 9.991346255635424e-24
79.5	 9.9707823163481e-24
79.75	 9.950050251129389e-24
80.0	 9.929451142938365e-24
80.25	 9.908733521495065e-24
80.5	 9.888655115838554e-24
80.75	 9.868561191987412e-24
81.0	 9.848502424226741e-24
81.25	 9.828657080191576e-24
81.5	 9.808873533693866e-24
81.75	 9.789330927085875e-24
82.0	 9.769979529149486e-24
82.25	 9.750820478298224e-24
82.5	 9.732086107305052e-24
82.75	 9.71316117440661e-24
83.0	 9.694379815130001e-24
83.25	 9.6759495658049e-24
83.5	 9.657251161691924e-24
83.75	 9.638905539530928e-24
84.0	 9.620732820320913e-24
84.25	 9.602525709416246e-24
84.5	 9.584623101614378e-24
84.75	 9.566869916540101e-24
85.0	 9.549057545119309e-24
85.25	 9.531605321245734e-24
85.5	 9.51393714505199e-24
85.75	 9.496394052481184e-24
86.0	 9.478844866332605e-24
86.25	 9.461448092126279e-24
86.5	 9.444495751494624e-24
86.75	 9.427433372875143e-24
87.0	 9.410844807986157e-24
87.25	 9.394333398384369e-24
87.5	 9.377792917312686e-24
87.75	 9.361490265977954e-24
88.0	 9.345266181334805e-24
88.25	 9.32925506136476e-24
88.5	 9.31337747543822e-24
88.75	 9.297203880737477e-24
89.0	 9.281136783821258e-24
89.25	 9.265716378132885e-24
89.5	 9.249891891260136e-24
89.75	 9.234392237716567e-24
90.0	 9.219137703711774e-24
90.25	 9.203885049260448e-24
90.5	 9.188743113179299e-24
90.75	 9.173630688010063e-24
91.0	 9.158793588677496e-24
91.25	 9.144041775932565e-24
91.5	 9.129266126036637e-24
91.75	 9.114658523499385e-24
92.0	 9.10027472112793e-24
92.25	 9.086198324932161e-24
92.5	 9.071686722985974e-24
92.75	 9.057483094105117e-24
93.0	 9.043229511629128e-24
93.25	 9.029257998307503e-24
93.5	 9.0153480243416e-24
93.75	 9.001805374479055e-24
94.0	 8.988409202968009e-24
94.25	 8.974658767886387e-24
94.5	 8.961138320548344e-24
94.75	 8.947820963787775e-24
95.0	 8.934427793653045e-24
95.25	 8.921210680171161e-24
95.5	 8.908198471071466e-24
95.75	 8.895026700353407e-24
96.0	 8.882173157510497e-24
96.25	 8.869639226033942e-24
96.5	 8.856635930193812e-24
96.75	 8.844037539495183e-24
97.0	 8.831647637898605e-24
97.25	 8.819297024139736e-24
97.5	 8.806815542521599e-24
97.75	 8.794543763038535e-24
98.0	 8.782454098940683e-24
98.25	 8.770347769615524e-24
98.5	 8.758081981804007e-24
98.75	 8.746142006622121e-24
99.0	 8.734357446315099e-24
99.25	 8.722499641731147e-24
99.5	 8.710711796403323e-24
99.75	 8.699252841480124e-24
100.0	 8.687663667523047e-24
100.25	 8.676030198195487e-24
100.5	 8.664756199686174e-24
100.75	 8.653611962643114e-24
101.0	 8.642279791814195e-24
101.25	 8.631367214989755e-24
101.5	 8.620440823995023e-24
101.75	 8.609500566234954e-24
102.0	 8.59845916429217e-24
102.25	 8.587607350129604e-24
102.5	 8.576800102602369e-24
102.75	 8.566271067389825e-24
103.0	 8.555612193174724e-24
103.25	 8.544940023195013e-24
103.5	 8.534664609696153e-24
103.75	 8.524288826641199e-24
104.0	 8.514105942493316e-24
104.25	 8.50376387254491e-24
104.5	 8.493615249115067e-24
104.75	 8.483837575060004e-24
105.0	 8.473901108698401e-24
105.25	 8.464248342292422e-24
105.5	 8.454377564315424e-24
105.75	 8.444672877027268e-24
106.0	 8.435223767037837e-24
106.25	 8.425704718301015e-24
106.5	 8.416353129473596e-24
106.75	 8.406782975669112e-24
107.0	 8.397440086121484e-24
107.25	 8.388146398340935e-24
107.5	 8.378991586103903e-24
107.75	 8.369767021847143e-24
108.0	 8.360861199661192e-24
108.25	 8.3520955454305e-24
108.5	 8.343051000683143e-24
108.75	 8.334356603841715e-24
109.0	 8.325743210068396e-24
109.25	 8.317120896079364e-24
109.5	 8.308519723753443e-24
109.75	 8.300240960357718e-24
110.0	 8.291984081026687e-24
110.25	 8.283869868606098e-24
110.5	 8.275747700359165e-24
110.75	 8.267768743742171e-24
111.0	 8.259661009993086e-24
111.25	 8.251393821652194e-24
111.5	 8.24345194684848e-24
111.75	 8.235805971488158e-24
112.0	 8.227757896292282e-24
112.25	 8.220097323024831e-24
112.5	 8.212429603960085e-24
112.75	 8.20484612896549e-24
113.0	 8.197133645366532e-24
113.25	 8.189597059684927e-24
113.5	 8.182175749762407e-24
113.75	 8.174900611016626e-24
114.0	 8.167465947281323e-24
114.25	 8.160208330673917e-24
114.5	 8.15294425345838e-24
114.75	 8.146011293878741e-24
115.0	 8.138949563672206e-24
115.25	 8.132004672895854e-24
115.5	 8.124807690031808e-24
115.75	 8.117881497040961e-24
116.0	 8.110918566968848e-24
116.25	 8.10416559554406e-24
116.5	 8.097406992364901e-24
116.75	 8.090859039681757e-24
117.0	 8.084243934963863e-24
117.25	 8.077530563235276e-24
117.5	 8.071090384824098e-24
117.75	 8.064831058366938e-24
118.0	 8.058380730643098e-24
118.25	 8.052080476497984e-24
118.5	 8.045713144277517e-24
118.75	 8.039713925258784e-24
119.0	 8.033554630423572e-24
119.25	 8.027421752966516e-24
119.5	 8.021471186758698e-24
119.75	 8.015578581736942e-24
120.0	 8.009650429325864e-24
120.25	 8.00390529679106e-24
120.5	 7.99806226532402e-24
120.75	 7.992559039506684e-24
121.0	 7.987020721145025e-24
121.25	 7.981509882221533e-24
121.5	 7.975901202998944e-24
121.75	 7.970476773694282e-24
122.0	 7.964923100695951e-24
122.25	 7.959522598749249e-24
122.5	 7.953929846308679e-24
122.75	 7.948742038838599e-24
123.0	 7.943487898901842e-24
123.25	 7.938324760300501e-24
123.5	 7.933252800711697e-24
123.75	 7.928177596396286e-24
124.0	 7.923162247486795e-24
124.25	 7.918143721858046e-24
124.5	 7.9133747541741e-24
124.75	 7.908508076748737e-24
125.0	 7.903733295095425e-24
125.25	 7.898987276860244e-24
125.5	 7.894143398748214e-24
125.75	 7.889581737963046e-24
126.0	 7.885049143791052e-24
126.25	 7.880482218747783e-24
126.5	 7.876007872012318e-24
126.75	 7.871499221876351e-24
127.0	 7.867051544257226e-24
127.25	 7.862569554541314e-24
127.5	 7.858339519262323e-24
127.75	 7.854234526674131e-24
128.0	 7.85e-24
128.25	 7.845667594284122e-24
128.5	 7.841587849409072e-24
128.75	 7.837474082891758e-24
129.0	 7.833166664893578e-24
129.25	 7.829048473473643e-24
129.5	 7.824992012775477e-24
129.75	 7.820901482565805e-24
130.0	 7.817000703594698e-24
130.25	 7.812905989451044e-24
130.5	 7.809065244957298e-24
130.75	 7.805478845016492e-24
131.0	 7.801634444140536e-24
131.25	 7.797884328457302e-24
131.5	 7.794196558978994e-24
131.75	 7.790539134103621e-24
132.0	 7.787104725120885e-24
132.25	 7.783508206458062e-24
132.5	 7.779556542631463e-24
132.75	 7.775763628094671e-24
133.0	 7.77196886252126e-24
133.25	 7.76823660813701e-24
133.5	 7.764727941145137e-24
133.75	 7.761249899339668e-24
134.0	 7.75783474946457e-24
134.25	 7.754321375852305e-24
134.5	 7.750935427417777e-24
134.75	 7.747418925035616e-24
135.0	 7.743965392484655e-24
135.25	 7.74044572360016e-24
135.5	 7.737409127091573e-24
135.75	 7.734048099152216e-24
136.0	 7.73062093237018e-24
136.25	 7.727418715198497e-24
136.5	 7.7241504387214e-24
136.75	 7.720718878446489e-24
137.0	 7.717512552629895e-24
137.25	 7.714499335666574e-24
137.5	 7.711387683160534e-24
137.75	 7.708209908921785e-24
138.0	 7.705193054038296e-24
138.25	 7.702239933941295e-24
138.5	 7.699285681152505e-24
138.75	 7.696265328066594e-24
139.0	 7.693243789195816e-24
139.25	 7.690253571892152e-24
139.5	 7.687229670043688e-24
139.75	 7.684302180419508e-24
140.0	 7.681438667333093e-24
140.25	 7.678541528180987e-24
140.5	 7.675741006573893e-24
140.75	 7.672972044781605e-24
141.0	 7.670202083387374e-24
141.25	 7.667594146797287e-24
141.5	 7.664789625293051e-24
141.75	 7.662212474213959e-24
142.0	 7.65960181732706e-24
142.25	 7.65725146511462e-24
142.5	 7.654541135822578e-24
142.75	 7.652091217438537e-24
143.0	 7.649444424270301e-24
143.25	 7.646894794620885e-24
143.5	 7.644344314589708e-24
143.75	 7.641825698090739e-24
144.0	 7.639175348164225e-24
144.25	 7.636524078401115e-24
144.5	 7.634068378001338e-24
144.75	 7.631611887406224e-24
145.0	 7.629220143631982e-24
145.25	 7.626860428774084e-24
145.5	 7.624532772570395e-24
145.75	 7.622171606569876e-24
146.0	 7.620006561676964e-24
146.25	 7.61774244773345e-24
146.5	 7.615543316139696e-24
146.75	 7.613277874870982e-24
147.0	 7.611044606359891e-24
147.25	 7.608744968784273e-24
147.5	 7.606641834607437e-24
147.75	 7.604570993816812e-24
148.0	 7.602170742623451e-24
148.25	 7.600065789188932e-24
148.5	 7.597993156090627e-24
148.75	 7.595952869785331e-24
149.0	 7.593747427983103e-24
149.25	 7.591837722185584e-24
149.5	 7.589631084578486e-24
149.75	 7.587522652354983e-24
150.0	 7.585611379447276e-24
150.25	 7.583732590222311e-24
150.5	 7.581886308828431e-24
150.75	 7.579973614729803e-24
151.0	 7.578225385933042e-24
151.25	 7.57624577214863e-24
151.5	 7.574397665821356e-24
151.75	 7.572417051377981e-24
152.0	 7.57073312169964e-24
152.25	 7.568949728991467e-24
152.5	 7.567198953377663e-24
152.75	 7.565381682373996e-24
153.0	 7.563663133693886e-24
153.25	 7.561944194451583e-24
153.5	 7.560125660331314e-24
153.75	 7.55833976478962e-24
154.0	 7.556619614616049e-24
154.25	 7.555031436069608e-24
154.5	 7.553376728324889e-24
154.75	 7.551887181360696e-24
155.0	 7.550364229624953e-24
155.25	 7.54867538048895e-24
155.5	 7.547184905645283e-24
155.75	 7.545694136393284e-24
156.0	 7.544169934459324e-24
156.25	 7.542612279575293e-24
156.5	 7.541220060441148e-24
156.75	 7.539860741419565e-24
157.0	 7.538666990920876e-24
157.25	 7.537174536920318e-24
157.5	 7.53574813804177e-24
157.75	 7.534354650532452e-24
158.0	 7.532960905248348e-24
158.25	 7.531500514505725e-24
158.5	 7.530239040030535e-24
158.75	 7.528612089887485e-24
159.0	 7.526984788080816e-24
159.25	 7.525888651847036e-24
159.5	 7.524493338424854e-24
159.75	 7.523197458527857e-24
160.0	 7.521901355375514e-24
160.25	 7.5205717867726e-24
160.5	 7.519208734966732e-24
160.75	 7.517812181745432e-24
161.0	 7.516548410008413e-24
161.25	 7.51511809621113e-24
161.5	 7.51398695766768e-24
161.75	 7.512689265502734e-24
162.0	 7.511424631852469e-24
162.25	 7.510226361435453e-24
162.5	 7.508994606470297e-24
162.75	 7.507829246859575e-24
163.0	 7.506597098552712e-24
163.25	 7.505464675821212e-24
163.5	 7.50439871008997e-24
163.75	 7.50336591137604e-24
164.0	 7.502299647441443e-24
164.25	 7.501099919345162e-24
164.5	 7.500099999333342e-24
164.75	 7.498999933324442e-24
165.0	 7.497866363172926e-24
165.25	 7.496832664532403e-24
165.5	 7.495998932764064e-24
165.75	 7.495065043080013e-24
166.0	 7.493997598078078e-24
166.25	 7.493063458959893e-24
166.5	 7.492095834944986e-24
166.75	 7.491161458679156e-24
167.0	 7.490293719207545e-24
167.25	 7.489359118108839e-24
167.5	 7.488457785151759e-24
167.75	 7.487723285485382e-24
168.0	 7.48672157890221e-24
168.25	 7.485853324771999e-24
168.5	 7.485151969065158e-24
168.75	 7.484216725883878e-24
169.0	 7.483448402975729e-24
169.25	 7.482746821856263e-24
169.5	 7.482011761551836e-24
169.75	 7.481310045707236e-24
170.0	 7.480641683706018e-24
170.25	 7.48010695110705e-24
170.5	 7.479405056553629e-24
170.75	 7.478602810685964e-24
171.0	 7.477867343033038e-24
171.25	 7.477031496523202e-24
171.5	 7.476396190679036e-24
171.75	 7.475827713370608e-24
172.0	 7.475292636412302e-24
172.25	 7.474590289775086e-24
172.5	 7.473954776421917e-24
172.75	 7.47355337172352e-24
173.0	 7.47288431597867e-24
173.25	 7.472349028250755e-24
173.5	 7.47184716117775e-24
173.75	 7.471378721494447e-24
174.0	 7.470876789239667e-24
174.25	 7.470274426016758e-24
174.5	 7.469705482815236e-24
174.75	 7.469270379361025e-24
175.0	 7.468701359674251e-24
175.25	 7.468232722672747e-24
175.5	 7.467864487254706e-24
175.75	 7.467462755179968e-24
176.0	 7.467027521042091e-24
176.25	 7.466525296280727e-24
176.5	 7.466156976651376e-24
176.75	 7.465822124856713e-24
177.0	 7.46538679506963e-24
177.25	 7.464951439895641e-24
177.5	 7.464650025285848e-24
177.75	 7.464415583285807e-24
178.0	 7.464181133922194e-24
178.25	 7.463946677194311e-24
178.5	 7.463645222007809e-24
178.75	 7.463343754645099e-24
179.0	 7.463209765241763e-24
179.25	 7.462975277997375e-24
179.5	 7.462807782597646e-24
179.75	 7.462573282722255e-24
180.0	 7.462439279484959e-24
180.25	 7.462238270117083e-24
180.5	 7.462003752344273e-24
180.75	 7.461903242471052e-24
181.0	 7.461769227200745e-24
181.25	 7.461668714168434e-24
181.5	 7.461501189439026e-24
181.75	 7.461367166947355e-24
182.0	 7.461266648498766e-24
182.25	 7.461065607538913e-24
182.5	 7.46093157722278e-24
182.75	 7.46096508502754e-24
183.0	 7.46096508502754e-24
183.25	 7.460797544498846e-24
183.5	 7.460764035941627e-24
183.75	 7.460663509366978e-24
184.0	 7.460663509366978e-24
184.25	 7.460663509366978e-24
184.5	 7.460697018375696e-24
184.75	 7.460730527233911e-24
185.0	 7.460797544498846e-24
185.25	 7.460831052905568e-24
185.5	 7.460864561161797e-24
185.75	 7.46096508502754e-24
186.0	 7.461099114741742e-24
186.25	 7.461065607538913e-24
186.5	 7.461199635447372e-24
186.75	 7.461233142048304e-24
187.0	 7.46133366094829e-24
187.25	 7.46130015479876e-24
187.5	 7.461467684041793e-24
187.75	 7.461702218662978e-24
188.0	 7.461735723007081e-24
188.25	 7.461735723007081e-24
188.5	 7.461869738879124e-24
188.75	 7.461970249203625e-24
189.0	 7.462137763402657e-24
189.25	 7.462338775477833e-24
189.5	 7.462606783155603e-24
189.75	 7.462841281978332e-24
190.0	 7.462874781208646e-24
190.25	 7.463075773432827e-24
190.5	 7.463176267515058e-24
190.75	 7.463578230312857e-24
191.0	 7.464181133922194e-24
