#freq	 asd
20.0	 2.757788969446357e-22
20.25	 2.657113095071416e-22
20.5	 2.560341774060643e-22
20.75	 2.4673974142808854e-22
21.0	 2.378455381124481e-22
21.25	 2.293774182433833e-22
21.5	 2.212607059556667e-22
21.75	 2.134530393318399e-22
22.0	 2.0597075035062625e-22
22.25	 1.9871147425350153e-22
22.5	 1.9174553449819895e-22
22.75	 1.851425126760464e-22
23.0	 1.7880142616880883e-22
23.25	 1.727357808909318e-22
23.5	 1.6690715982245938e-22
23.75	 1.6131552932064537e-22
24.0	 1.5600048076848993e-22
24.25	 1.5094618246249224e-22
24.5	 1.4610766578109444e-22
24.75	 1.4153038543012592e-22
25.0	 1.3713497001129946e-22
25.25	 1.3291726750125432e-22
25.5	 1.2887823710774446e-22
25.75	 1.2500179998704018e-22
26.0	 1.2130230830450012e-22
26.25	 1.1775950067828921e-22
26.5	 1.1433831378851097e-22
26.75	 1.1106687174851015e-22
27.0	 1.079110745011836e-22
27.25	 1.0486872746438758e-22
27.5	 1.0196984848473592e-22
27.75	 9.918442418041252e-23
28.0	 9.654506719662067e-23
28.25	 9.400585088174033e-23
28.5	 9.152404055765895e-23
28.75	 8.915183677300204e-23
29.0	 8.687951427120205e-23
29.25	 8.468943263477445e-23
29.5	 8.257360353042612e-23
29.75	 8.054005214798411e-23
30.0	 7.858530396963545e-23
30.25	 7.668833027260406e-23
30.5	 7.486821755591621e-23
30.75	 7.310300951397281e-23
31.0	 7.140483176928576e-23
31.25	 6.977463722585737e-23
31.5	 6.819890028438875e-23
31.75	 6.667612016306888e-23
32.0	 6.521909229665804e-23
32.25	 6.38105790602154e-23
32.5	 6.245306237487478e-23
32.75	 6.114797625432914e-23
33.0	 5.987695717051761e-23
33.25	 5.865394274897468e-23
33.5	 5.74696006598271e-23
33.75	 5.633227316556647e-23
34.0	 5.522621660045164e-23
34.25	 5.415307008840773e-23
34.5	 5.311991152101065e-23
34.75	 5.213223570882031e-23
35.0	 5.116922903464542e-23
35.25	 5.024246212119784e-23
35.5	 4.935017730464603e-23
35.75	 4.848138818144547e-23
36.0	 4.762903526211716e-23
36.25	 4.6810789354592173e-23
36.5	 4.6006032213178303e-23
36.75	 4.522598810418629e-23
37.0	 4.446661669162609e-23
37.25	 4.373082436908776e-23
37.5	 4.3015404217559084e-23
37.75	 4.2311227824302147e-23
38.0	 4.1619526667178713e-23
38.25	 4.095979736278001e-23
38.5	 4.032418629061224e-23
38.75	 3.971076680196443e-23
39.0	 3.911125157803059e-23
39.25	 3.8530507393492755e-23
39.5	 3.796853960847059e-23
39.75	 3.74123642663759e-23
40.0	 3.687865236149499e-23
40.25	 3.636378693150646e-23
40.5	 3.5865024745565144e-23
40.75	 3.537930185857262e-23
41.0	 3.4902435445108986e-23
41.25	 3.444814944231402e-23
41.5	 3.400257343202129e-23
41.75	 3.3564713614151396e-23
42.0	 3.314694556063952e-23
42.25	 3.273270535718061e-23
42.5	 3.232777443623362e-23
42.75	 3.1935951528019327e-23
43.0	 3.1549960380323775e-23
43.25	 3.117755602993923e-23
43.5	 3.081201064520133e-23
43.75	 3.046161519026856e-23
44.0	 3.0114697408408406e-23
44.25	 2.9780362657294826e-23
44.5	 2.944961799412685e-23
44.75	 2.9126448461836195e-23
45.0	 2.8808852806038634e-23
45.25	 2.8499736840890304e-23
45.5	 2.820283673675398e-23
45.75	 2.790913828838146e-23
46.0	 2.762281665580105e-23
46.25	 2.734465212797559e-23
46.5	 2.7072956986631516e-23
46.75	 2.6808767222682956e-23
47.0	 2.654628034207429e-23
47.25	 2.62884004838636e-23
47.5	 2.6038817177437228e-23
47.75	 2.5794088470035144e-23
48.0	 2.555885365191483e-23
48.25	 2.5325481239257823e-23
48.5	 2.5098605538953755e-23
48.75	 2.4874183403681817e-23
49.0	 2.4656540714382462e-23
49.25	 2.4443506295128772e-23
49.5	 2.4236748956904266e-23
49.75	 2.4033830323109133e-23
50.0	 2.3835792413930776e-23
50.25	 2.3642652135494445e-23
50.5	 2.3455596347140695e-23
50.75	 2.3268433552777033e-23
51.0	 2.3085709865628996e-23
51.25	 2.2908295440735e-23
51.5	 2.2733895398721268e-23
51.75	 2.2565460332109336e-23
52.0	 2.2399776784602118e-23
52.25	 2.2239649277810116e-23
52.5	 2.2082719488323898e-23
52.75	 2.192688988434064e-23
53.0	 2.1773952328412956e-23
53.25	 2.162492774554403e-23
53.5	 2.14772670514663e-23
53.75	 2.1334900984068334e-23
54.0	 2.1196426585629948e-23
54.25	 2.1058442487515546e-23
54.5	 2.0924184571925377e-23
54.75	 2.0793592763156636e-23
55.0	 2.0665926061998772e-23
55.25	 2.0540484414930434e-23
55.5	 2.0416855781437065e-23
55.75	 2.0296502161702642e-23
56.0	 2.0178453855536107e-23
56.25	 2.0062116039939556e-23
56.5	 1.994711758625792e-23
56.75	 1.9835649724675014e-23
57.0	 1.972561786104557e-23
57.25	 1.9617657862242372e-23
57.5	 1.951153504981092e-23
57.75	 1.9407034806997178e-23
58.0	 1.9304623798458232e-23
58.25	 1.920191396710234e-23
58.5	 1.910255218550652e-23
58.75	 1.900531504606014e-23
59.0	 1.8908133170675523e-23
59.25	 1.8812761626087757e-23
59.5	 1.871790586577462e-23
59.75	 1.862476845493656e-23
60.0	 1.8535587392904493e-23
60.25	 1.8446259783489985e-23
60.5	 1.835645662975292e-23
60.75	 1.8268264832763947e-23
61.0	 1.8179713969147038e-23
61.25	 1.809274716564624e-23
61.5	 1.8007651151663285e-23
61.75	 1.792339253601282e-23
62.0	 1.7839030242700975e-23
62.25	 1.775564698905675e-23
62.5	 1.767344052526276e-23
62.75	 1.7594402518983132e-23
63.0	 1.7514665283698686e-23
63.25	 1.7435395034239976e-23
63.5	 1.7355561068429912e-23
63.75	 1.7279105879645508e-23
64.0	 1.7208994741123026e-23
64.25	 1.7139719951037706e-23
64.5	 1.7068684776513978e-23
64.75	 1.6998367568681412e-23
65.0	 1.6929943886498857e-23
65.25	 1.6861820779500654e-23
65.5	 1.6796666335913207e-23
65.75	 1.6733529215320956e-23
66.0	 1.6679433443615524e-23
66.25	 1.6630544188330098e-23
66.5	 1.6592965376930067e-23
66.75	 1.6570063367410518e-23
67.0	 1.6559815820231818e-23
67.25	 1.6580847384859434e-23
67.5	 1.6647342130202046e-23
67.75	 1.6774578981303824e-23
68.0	 1.7000088235065134e-23
68.25	 1.7430935144162517e-23
68.5	 1.811416572740793e-23
68.75	 1.9209646014437642e-23
69.0	 2.144128027893857e-23
69.25	 2.671684861655656e-23
69.5	 4.3008022507434587e-23
69.75	 8.732754433739678e-23
70.0	 4.4245734257666016e-23
70.25	 2.727306363428942e-23
70.5	 2.1356638312243807e-23
70.75	 1.8807285822255162e-23
71.0	 1.748732398052944e-23
71.25	 1.6621642518114747e-23
71.5	 1.6017287535659714e-23
71.75	 1.5631282736870956e-23
72.0	 1.5362763423290745e-23
72.25	 1.516169515588544e-23
72.5	 1.5003566242730426e-23
72.75	 1.4872877999903044e-23
73.0	 1.4765720436199515e-23
73.25	 1.4670003408315897e-23
73.5	 1.458504370922487e-23
73.75	 1.450615386654919e-23
74.0	 1.4431701216419358e-23
74.25	 1.436319950428873e-23
74.5	 1.4297324924614394e-23
74.75	 1.4232164276735987e-23
75.0	 1.4168715538114243e-23
75.25	 1.410372291276314e-23
75.5	 1.4041652324423932e-23
75.75	 1.3983186332163354e-23
76.0	 1.392531866780793e-23
76.25	 1.3867029242054695e-23
76.5	 1.38107385754709e-23
76.75	 1.3755962343653024e-23
77.0	 1.3701405037440503e-23
77.25	 1.3646611300978716e-23
77.5	 1.359308647805935e-23
77.75	 1.353903615476375e-23
78.0	 1.3485529281418657e-23
78.25	 1.343139977813184e-23
78.5	 1.337961135459472e-23
78.75	 1.3328390750574505e-23
79.0	 1.327748093577995e-23
79.25	 1.3227547013713465e-23
79.5	 1.317757564956468e-23
79.75	 1.312735693123334e-23
80.0	 1.3077327708671982e-23
80.25	 1.3028795032542342e-23
80.5	 1.2978925225148652e-23
80.75	 1.2930216548844029e-23
81.0	 1.2881886507806222e-23
81.25	 1.2833588742047175e-23
81.5	 1.2786281711271654e-23
81.75	 1.2739937205496737e-23
82.0	 1.269318714901817e-23
82.25	 1.2647114295363983e-23
82.5	 1.2601170580545286e-23
82.75	 1.2555377334035007e-23
83.0	 1.2510555543220293e-23
83.25	 1.2466094015368246e-23
83.5	 1.2422016744474304e-23
83.75	 1.2378428817907384e-23
84.0	 1.2334605790214782e-23
84.25	 1.2291155356596873e-23
84.5	 1.2248693807912745e-23
84.75	 1.2206637538650846e-23
85.0	 1.2164579729690623e-23
85.25	 1.2122685346077411e-23
85.5	 1.2081949346028562e-23
85.75	 1.2041511533026076e-23
86.0	 1.2000749976563964e-23
86.25	 1.196007943117436e-23
86.5	 1.1919752514209345e-23
86.75	 1.1880067339876487e-23
87.0	 1.184105147358122e-23
87.25	 1.1802118453904791e-23
87.5	 1.1762631508297792e-23
87.75	 1.1725186565679882e-23
88.0	 1.16870654999448e-23
88.25	 1.1649270363417616e-23
88.5	 1.1611610568736793e-23
88.75	 1.1574044236998578e-23
89.0	 1.1536160539798326e-23
89.25	 1.1499608688994595e-23
89.5	 1.146357274151475e-23
89.75	 1.1426898091783265e-23
90.0	 1.1390763802309308e-23
90.25	 1.1355086965761204e-23
90.5	 1.1319761481586086e-23
90.75	 1.1284834956701848e-23
91.0	 1.1250333328395208e-23
91.25	 1.1215636406374808e-23
91.5	 1.1180563492060676e-23
91.75	 1.1146187689071093e-23
92.0	 1.1112695442600773e-23
92.25	 1.1079417854743091e-23
92.5	 1.104649265604246e-23
92.75	 1.1013378228318503e-23
93.0	 1.0979959016316956e-23
93.25	 1.0947259931142586e-23
93.5	 1.091533325189845e-23
93.75	 1.0883244001675235e-23
94.0	 1.0851474554179261e-23
94.25	 1.081979667091762e-23
94.5	 1.0788859995384129e-23
94.75	 1.075739280680965e-23
95.0	 1.072706856508338e-23
95.25	 1.0696868700699284e-23
95.5	 1.0666419267964296e-23
95.75	 1.0636987355449851e-23
96.0	 1.0607190957081898e-23
96.25	 1.05771688083343e-23
96.5	 1.0547772276646856e-23
96.75	 1.051886400710647e-23
97.0	 1.0489852239188119e-23
97.25	 1.0460951199580275e-23
97.5	 1.0432449376824217e-23
97.75	 1.0404253937692986e-23
98.0	 1.0376271006483977e-23
98.25	 1.0348164088378189e-23
98.5	 1.0320319762487982e-23
98.75	 1.0292424398556445e-23
99.0	 1.0264842911608536e-23
99.25	 1.0237895291513779e-23
99.5	 1.0211194837040374e-23
99.75	 1.0184473476817543e-23
100.0	 1.0158223269843993e-23
100.25	 1.013188037829109e-23
100.5	 1.0105295641395158e-23
100.75	 1.0079310492290631e-23
101.0	 1.0053656051407368e-23
101.25	 1.002821020920483e-23
101.5	 1.0002824601081437e-23
101.75	 9.977424517379221e-24
102.0	 9.95238664843765e-24
102.25	 9.927361180092119e-24
102.5	 9.902827878944478e-24
102.75	 9.878360187804452e-24
103.0	 9.853755629200472e-24
103.25	 9.82926752103126e-24
103.5	 9.805330183119791e-24
103.75	 9.781513175373225e-24
104.0	 9.758124819861651e-24
104.25	 9.734423454935583e-24
104.5	 9.71099891875187e-24
104.75	 9.687749996774277e-24
105.0	 9.665117691989064e-24
105.25	 9.642198919333702e-24
105.5	 9.619355487765279e-24
105.75	 9.597004741063746e-24
106.0	 9.574288485313152e-24
106.25	 9.551910803603643e-24
106.5	 9.529742913636234e-24
106.75	 9.507523336810696e-24
107.0	 9.485673407829304e-24
107.25	 9.463957945806817e-24
107.5	 9.442722065167438e-24
107.75	 9.420854525997097e-24
108.0	 9.399654248960436e-24
108.25	 9.378326076651419e-24
108.5	 9.357163031603115e-24
108.75	 9.336326900874884e-24
109.0	 9.315712533134542e-24
109.25	 9.295563457908294e-24
109.5	 9.275181938916346e-24
109.75	 9.254809560439372e-24
110.0	 9.234608816836802e-24
110.25	 9.214200996288284e-24
110.5	 9.194862696092857e-24
110.75	 9.174557210023817e-24
111.0	 9.15508055671822e-24
111.25	 9.135343452766294e-24
111.5	 9.115865290799333e-24
111.75	 9.096455353597905e-24
112.0	 9.077444574328173e-24
112.25	 9.058614684376414e-24
112.5	 9.040022123866733e-24
112.75	 9.021335821262836e-24
113.0	 9.002610732448672e-24
113.25	 8.984430978086481e-24
113.5	 8.965991300464216e-24
113.75	 8.947904782685162e-24
114.0	 8.930005599102387e-24
114.25	 8.912154621638922e-24
114.5	 8.894464570731618e-24
114.75	 8.877274356467755e-24
115.0	 8.859909706086174e-24
115.25	 8.842510955605314e-24
115.5	 8.825701105294695e-24
115.75	 8.80979568435046e-24
116.0	 8.793264467761674e-24
116.25	 8.776929987188004e-24
116.5	 8.759594739484241e-24
116.75	 8.741424369060228e-24
117.0	 8.72433378545319e-24
117.25	 8.707554191620056e-24
117.5	 8.690914796498697e-24
117.75	 8.67458932745522e-24
118.0	 8.65831969841724e-24
118.25	 8.642424428364995e-24
118.5	 8.626789669396142e-24
118.75	 8.61092329544283e-24
119.0	 8.595173063993534e-24
119.25	 8.579364778350435e-24
119.5	 8.564111162286487e-24
119.75	 8.548947303615808e-24
120.0	 8.533697908878659e-24
120.25	 8.518509259254227e-24
120.5	 8.503264079163954e-24
120.75	 8.487903156846219e-24
121.0	 8.473015991959416e-24
121.25	 8.458575530194195e-24
121.5	 8.444228798416111e-24
121.75	 8.429916962817605e-24
122.0	 8.415343130259158e-24
122.25	 8.401606989142017e-24
122.5	 8.387222424617102e-24
122.75	 8.373499865647578e-24
123.0	 8.360203346809215e-24
123.25	 8.346526223525569e-24
123.5	 8.332766647398689e-24
123.75	 8.319224723494371e-24
124.0	 8.305510219125613e-24
124.25	 8.291742880721761e-24
124.5	 8.27843584259732e-24
124.75	 8.265288863675607e-24
125.0	 8.25187857399756e-24
125.25	 8.238992656872563e-24
125.5	 8.22611694543665e-24
125.75	 8.213190610231812e-24
126.0	 8.20045730432151e-24
126.25	 8.187734729459669e-24
126.5	 8.175359319320466e-24
126.75	 8.162383230405198e-24
127.0	 8.150184047001638e-24
127.25	 8.138150895627336e-24
127.5	 8.125823035237724e-24
127.75	 8.113599694340361e-24
128.0	 8.101512204520833e-24
128.25	 8.089406653148301e-24
128.5	 8.077530563235276e-24
128.75	 8.065791963595391e-24
129.0	 8.05437769166557e-24
129.25	 8.04307155258487e-24
129.5	 8.031438227366255e-24
129.75	 8.019850372669057e-24
130.0	 8.008714004133247e-24
130.25	 7.997437089468101e-24
130.5	 7.986519892919569e-24
130.75	 7.975336983475996e-24
131.0	 7.964326713539569e-24
131.25	 7.953804121299443e-24
131.5	 7.943015800059824e-24
131.75	 7.932275839883532e-24
132.0	 7.921710673838069e-24
132.25	 7.911321002209429e-24
132.5	 7.901044234783146e-24
132.75	 7.890659034580064e-24
133.0	 7.880482218747783e-24
133.25	 7.870673414645026e-24
133.5	 7.860629745764647e-24
133.75	 7.850827981811855e-24
134.0	 7.840822660920217e-24
134.25	 7.831219572965631e-24
134.5	 7.821444879304591e-24
134.75	 7.811785967370073e-24
135.0	 7.80214714037104e-24
135.25	 7.792817205606712e-24
135.5	 7.783315488916018e-24
135.75	 7.774059428638296e-24
136.0	 7.764856727590021e-24
136.25	 7.755417461362089e-24
136.5	 7.746192613148734e-24
136.75	 7.737279883783447e-24
137.0	 7.728130433681875e-24
137.25	 7.719164462556812e-24
137.5	 7.710479881304406e-24
137.75	 7.70201272395729e-24
138.0	 7.693146300441712e-24
138.25	 7.684367247861075e-24
138.5	 7.675708436359474e-24
138.75	 7.667561541976692e-24
139.0	 7.65904693809876e-24
139.25	 7.650555535384342e-24
139.5	 7.642283690102062e-24
139.75	 7.634264863102406e-24
140.0	 7.626335948540426e-24
140.25	 7.618562856602287e-24
140.5	 7.610453337351198e-24
140.75	 7.602631123499286e-24
141.0	 7.59480085321531e-24
141.25	 7.58781918603758e-24
141.5	 7.580171502017616e-24
141.75	 7.572351021974616e-24
142.0	 7.565051222562873e-24
142.25	 7.557545897975083e-24
142.5	 7.549966887344606e-24
142.75	 7.542877435037639e-24
143.0	 7.53581448816251e-24
143.25	 7.529176581804945e-24
143.5	 7.522067534926818e-24
143.75	 7.515251160140957e-24
144.0	 7.508461893091021e-24
144.25	 7.501533176624629e-24
144.5	 7.49496497656927e-24
144.75	 7.488691474483375e-24
145.0	 7.482178827052986e-24
145.25	 7.475961476626268e-24
145.5	 7.469571607528774e-24
145.75	 7.463176267515058e-24
146.0	 7.456909547527045e-24
146.25	 7.450905985180594e-24
146.5	 7.444595355020984e-24
146.75	 7.438144930021194e-24
147.0	 7.432428943488125e-24
147.25	 7.426944189907449e-24
147.5	 7.421084826357936e-24
147.75	 7.415288261423152e-24
148.0	 7.409352198404392e-24
148.25	 7.403546447480424e-24
148.5	 7.397803728134452e-24
148.75	 7.392665283914861e-24
149.0	 7.387286375929932e-24
149.25	 7.381598742819877e-24
149.5	 7.376347334555226e-24
149.75	 7.371092185015732e-24
150.0	 7.365799345624343e-24
150.25	 7.360638559255575e-24
150.5	 7.355066281142543e-24
150.75	 7.349761900905362e-24
151.0	 7.344896187149278e-24
151.25	 7.339856946834863e-24
151.5	 7.334507481760449e-24
151.75	 7.329802180141016e-24
152.0	 7.325059726718957e-24
152.25	 7.320348352366846e-24
152.5	 7.31556559672593e-24
152.75	 7.310677123221897e-24
153.0	 7.305819598101229e-24
153.25	 7.301095808164689e-24
153.5	 7.296711588105974e-24
153.75	 7.292324732209887e-24
154.0	 7.28841546565507e-24
154.25	 7.284126577703054e-24
154.5	 7.280247248548637e-24
154.75	 7.276365851164989e-24
155.0	 7.272069856650168e-24
155.25	 7.268046505079615e-24
155.5	 7.263711172671998e-24
155.75	 7.259717625362573e-24
156.0	 7.25558405643543e-24
156.25	 7.251379179163092e-24
156.5	 7.24772378060864e-24
156.75	 7.243652393647834e-24
157.0	 7.239716845291673e-24
157.25	 7.236021006050218e-24
157.5	 7.232426978545999e-24
157.75	 7.228519903825401e-24
158.0	 7.225095155082735e-24
158.25	 7.221357213155986e-24
158.5	 7.217721247041895e-24
158.75	 7.214187410928552e-24
159.0	 7.210547829395488e-24
159.25	 7.20749609781372e-24
159.5	 7.203853135649006e-24
159.75	 7.200173609018049e-24
160.0	 7.196804846596856e-24
160.25	 7.193434506548315e-24
160.5	 7.190062586653887e-24
160.75	 7.186689084689834e-24
161.0	 7.183279195464979e-24
161.25	 7.180076601262692e-24
161.5	 7.176942245831438e-24
161.75	 7.173771671861323e-24
162.0	 7.170634560483473e-24
162.25	 7.167600714325541e-24
162.5	 7.164635371042967e-24
162.75	 7.161633891787544e-24
163.0	 7.158700999483076e-24
163.25	 7.155801841862308e-24
163.5	 7.152971410539818e-24
163.75	 7.150279714808366e-24
164.0	 7.147377141301555e-24
164.25	 7.144438396403177e-24
164.5	 7.14160346140837e-24
164.75	 7.139047555521675e-24
165.0	 7.136210478958703e-24
165.25	 7.133617595582201e-24
165.5	 7.131128942881344e-24
165.75	 7.128884905789964e-24
166.0	 7.126394600357183e-24
166.25	 7.12383323780112e-24
166.5	 7.121516692390743e-24
166.75	 7.11930474133535e-24
167.0	 7.117232608254419e-24
167.25	 7.114808500585241e-24
167.5	 7.112594463344582e-24
167.75	 7.110344576741692e-24
168.0	 7.107953291911815e-24
168.25	 7.105772301446198e-24
168.5	 7.103801799036907e-24
168.75	 7.101443515229845e-24
169.0	 7.099190094651642e-24
169.25	 7.097288214522501e-24
169.5	 7.095561993246202e-24
169.75	 7.093447680782597e-24
170.0	 7.091226974226675e-24
170.25	 7.089287693414621e-24
170.5	 7.087242058798331e-24
170.75	 7.085407539443304e-24
171.0	 7.083466665411788e-24
171.25	 7.08180767883455e-24
171.5	 7.080042372754559e-24
171.75	 7.07848853922926e-24
172.0	 7.076828385654128e-24
172.25	 7.075026501717149e-24
172.5	 7.073400879350752e-24
172.75	 7.071562769289402e-24
173.0	 7.070137905302838e-24
173.25	 7.068677386894949e-24
173.5	 7.066986627976594e-24
173.75	 7.065005307853632e-24
174.0	 7.063568503242537e-24
174.25	 7.061880061286796e-24
174.5	 7.060233707179955e-24
174.75	 7.058884472776133e-24
175.0	 7.057177197718646e-24
175.25	 7.055667934363124e-24
175.5	 7.054785609782909e-24
175.75	 7.053339634527746e-24
176.0	 7.051794097958335e-24
176.25	 7.050616994277876e-24
176.5	 7.049432601280758e-24
176.75	 7.048361511727388e-24
177.0	 7.047056122949498e-24
177.25	 7.045771781714193e-24
177.5	 7.044636257465675e-24
177.75	 7.043681565772263e-24
178.0	 7.042520855489177e-24
178.25	 7.041693688311073e-24
178.5	 7.040770554420872e-24
178.75	 7.039651980034241e-24
179.0	 7.038678853307629e-24
179.25	 7.037865443442351e-24
179.5	 7.036614953228577e-24
179.75	 7.035730239285757e-24
180.0	 7.034642848076937e-24
180.25	 7.033708125875e-24
180.5	 7.032933242964843e-24
180.75	 7.032161829764727e-24
181.0	 7.031137887995087e-24
181.25	 7.030359165789469e-24
181.5	 7.029640815859655e-24
181.75	 7.028986413416945e-24
182.0	 7.028271480243205e-24
182.25	 7.027673868357865e-24
182.5	 7.027222068499044e-24
182.75	 7.026535419394112e-24
183.0	 7.026008824361096e-24
183.25	 7.025670786480107e-24
183.5	 7.025179713003789e-24
183.75	 7.024841635225666e-24
184.0	 7.024336267577172e-24
184.25	 7.02393052357439e-24
184.5	 7.023346780559821e-24
184.75	 7.02299081588464e-24
185.0	 7.022467515054805e-24
185.25	 7.021983338060552e-24
185.5	 7.021979777811953e-24
185.75	 7.021499127679217e-24
186.0	 7.0212392068637e-24
186.25	 7.020776310352011e-24
186.5	 7.020320505504005e-24
186.75	 7.020049857372809e-24
187.0	 7.01979344425461e-24
187.25	 7.019472914685261e-24
187.5	 7.019455107057811e-24
187.75	 7.019480037723593e-24
188.0	 7.019180863890031e-24
188.25	 7.018831811633613e-24
188.5	 7.018685774416747e-24
188.75	 7.01862522150884e-24
189.0	 7.018571792038606e-24
189.25	 7.018500552112253e-24
189.5	 7.018290390116385e-24
189.75	 7.018016101434935e-24
190.0	 7.017866484908358e-24
190.25	 7.017898545861148e-24
190.5	 7.01750667972607e-24
