# Frequency    Median Mag     Phase (Rad)    -1 Sigma Mag   -1 Sigma Phase +1 Sigma Mag   +1 Sigma Phase
+1.5269278e+01 +1.0047457e+00 +1.8362176e-02 +9.7298212e-01 -1.3214268e-02 +1.0373243e+00 +4.9887396e-02
+1.6372746e+01 +1.0079205e+00 +1.6920983e-02 +9.7890002e-01 -1.2007750e-02 +1.0375947e+00 +4.5630620e-02
+1.7555959e+01 +1.0101759e+00 +1.5217359e-02 +9.8370327e-01 -1.1600463e-02 +1.0379224e+00 +4.1289572e-02
+1.8824679e+01 +1.0118181e+00 +1.3284542e-02 +9.8718200e-01 -1.1459486e-02 +1.0379290e+00 +3.7321682e-02
+2.0185086e+01 +1.0129420e+00 +1.1519234e-02 +9.9006697e-01 -1.1637293e-02 +1.0375694e+00 +3.3644141e-02
+2.1643806e+01 +1.0136902e+00 +9.6107557e-03 +9.9189483e-01 -1.2018469e-02 +1.0368300e+00 +3.0330132e-02
+2.3207944e+01 +1.0140017e+00 +7.9619052e-03 +9.9312233e-01 -1.2474500e-02 +1.0359165e+00 +2.7357394e-02
+2.4885118e+01 +1.0139880e+00 +6.4913018e-03 +9.9377037e-01 -1.2937116e-02 +1.0347987e+00 +2.4610732e-02
+2.6683496e+01 +1.0134543e+00 +5.0692398e-03 +9.9413020e-01 -1.3361354e-02 +1.0335509e+00 +2.2392274e-02
+2.8611838e+01 +1.0127730e+00 +3.7270377e-03 +9.9406824e-01 -1.3756096e-02 +1.0323641e+00 +2.0435014e-02
+3.0679536e+01 +1.0120122e+00 +2.7231892e-03 +9.9388727e-01 -1.4115585e-02 +1.0310327e+00 +1.8864610e-02
+3.2896661e+01 +1.0111331e+00 +1.8000723e-03 +9.9351273e-01 -1.4306386e-02 +1.0295007e+00 +1.7480996e-02
+3.5274012e+01 +1.0102876e+00 +9.1669030e-04 +9.9307562e-01 -1.4514965e-02 +1.0279933e+00 +1.6186432e-02
+3.7823166e+01 +1.0092441e+00 +3.4157387e-04 +9.9230414e-01 -1.4620478e-02 +1.0264002e+00 +1.5157960e-02
+4.0556542e+01 +1.0081223e+00 -1.3703715e-04 +9.9155039e-01 -1.4627169e-02 +1.0249171e+00 +1.4126203e-02
+4.3487450e+01 +1.0070230e+00 -3.8974698e-04 +9.9090959e-01 -1.4587534e-02 +1.0234599e+00 +1.3385525e-02
+4.6630167e+01 +1.0059445e+00 -6.5451860e-04 +9.9018890e-01 -1.4548229e-02 +1.0219501e+00 +1.2797937e-02
+5.0000000e+01 +1.0049397e+00 -8.3600591e-04 +9.8942095e-01 -1.4311910e-02 +1.0205886e+00 +1.2337247e-02
+5.3613361e+01 +1.0039014e+00 -8.9151485e-04 +9.8859368e-01 -1.4034064e-02 +1.0191739e+00 +1.1979847e-02
+5.7487850e+01 +1.0028898e+00 -7.9711524e-04 +9.8796628e-01 -1.3571061e-02 +1.0179149e+00 +1.1561282e-02
+6.1642337e+01 +1.0019903e+00 -7.4773189e-04 +9.8731358e-01 -1.3159084e-02 +1.0167362e+00 +1.1363984e-02
+6.6097057e+01 +1.0011341e+00 -6.0050976e-04 +9.8673256e-01 -1.2630558e-02 +1.0155538e+00 +1.1210559e-02
+7.0873708e+01 +1.0003513e+00 -3.6086244e-04 +9.8621577e-01 -1.2085396e-02 +1.0145029e+00 +1.1063040e-02
+7.5995554e+01 +9.9964649e-01 -1.7126080e-04 +9.8595720e-01 -1.1465120e-02 +1.0134647e+00 +1.0930396e-02
+8.1487542e+01 +9.9909662e-01 +7.9034282e-05 +9.8558863e-01 -1.0864049e-02 +1.0126853e+00 +1.0844892e-02
+8.7376420e+01 +9.9864864e-01 +3.8620155e-04 +9.8541627e-01 -1.0163135e-02 +1.0118694e+00 +1.0912688e-02
+9.3690871e+01 +9.9828196e-01 +7.7913107e-04 +9.8543751e-01 -9.4203456e-03 +1.0111556e+00 +1.0872637e-02
+1.0046165e+02 +9.9803267e-01 +1.1881917e-03 +9.8556848e-01 -8.7117446e-03 +1.0106552e+00 +1.0990530e-02
+1.0772173e+02 +9.9784053e-01 +1.5576567e-03 +9.8563238e-01 -7.9985119e-03 +1.0101898e+00 +1.0901184e-02
+1.1550649e+02 +9.9785398e-01 +1.9098325e-03 +9.8584740e-01 -7.4218672e-03 +1.0099240e+00 +1.0877877e-02
+1.2385382e+02 +9.9802414e-01 +2.1140960e-03 +9.8610539e-01 -6.8332497e-03 +1.0097452e+00 +1.0868555e-02
+1.3280439e+02 +9.9822520e-01 +2.3651657e-03 +9.8650293e-01 -6.2801647e-03 +1.0097530e+00 +1.0752664e-02
+1.4240179e+02 +9.9851263e-01 +2.5619586e-03 +9.8684249e-01 -5.8531568e-03 +1.0098269e+00 +1.0536937e-02
+1.5269278e+02 +9.9874979e-01 +2.5985240e-03 +9.8725626e-01 -5.5119037e-03 +1.0099750e+00 +1.0210925e-02
+1.6372746e+02 +9.9906651e-01 +2.4498352e-03 +9.8773114e-01 -5.3303200e-03 +1.0101145e+00 +9.8825359e-03
+1.7555959e+02 +9.9930908e-01 +2.2689200e-03 +9.8824684e-01 -5.3009742e-03 +1.0102566e+00 +9.5658487e-03
+1.8824679e+02 +9.9959009e-01 +1.9987962e-03 +9.8861558e-01 -5.3232291e-03 +1.0104452e+00 +9.1435232e-03
+2.0185086e+02 +9.9980194e-01 +1.6876787e-03 +9.8881897e-01 -5.5283790e-03 +1.0104263e+00 +8.7835269e-03
+2.1643806e+02 +9.9981775e-01 +1.3600031e-03 +9.8873727e-01 -5.8115129e-03 +1.0104410e+00 +8.4693951e-03
+2.3207944e+02 +9.9968763e-01 +1.2581078e-03 +9.8867847e-01 -6.0473061e-03 +1.0104413e+00 +8.4880040e-03
+2.4885118e+02 +9.9960751e-01 +1.2909914e-03 +9.8850088e-01 -6.2581824e-03 +1.0105822e+00 +8.7073905e-03
+2.6683496e+02 +9.9976697e-01 +1.5554251e-03 +9.8832663e-01 -6.2350398e-03 +1.0109427e+00 +9.2434187e-03
+2.8611838e+02 +1.0002040e+00 +1.8125180e-03 +9.8856411e-01 -6.3224328e-03 +1.0118667e+00 +9.9271054e-03
+3.0679536e+02 +1.0012491e+00 +1.9311841e-03 +9.8925167e-01 -6.7436742e-03 +1.0134757e+00 +1.0558260e-02
+3.2896661e+02 +1.0023903e+00 -1.6561978e-03 +9.9011269e-01 -1.0641128e-02 +1.0146392e+00 +7.0518409e-03
+3.5274012e+02 +1.0027928e+00 +7.1041828e-04 +9.9061211e-01 -8.1977874e-03 +1.0152335e+00 +9.4019750e-03
+3.7823166e+02 +1.0037268e+00 -1.5726210e-03 +9.9105955e-01 -1.0948929e-02 +1.0163765e+00 +7.7486644e-03
+4.0556542e+02 +1.0026335e+00 -3.6967150e-03 +9.8975834e-01 -1.3530960e-02 +1.0155492e+00 +6.0497718e-03
+4.3487450e+02 +1.0008566e+00 -4.4744035e-03 +9.8770448e-01 -1.4574043e-02 +1.0137244e+00 +5.3531113e-03
+4.6630167e+02 +9.9779720e-01 -3.5607980e-03 +9.8633819e-01 -1.1730714e-02 +1.0092248e+00 +4.3181758e-03
+5.0000000e+02 +9.9986779e-01 -2.6011409e-03 +9.8843218e-01 -1.0555445e-02 +1.0113193e+00 +5.3013679e-03
+5.3613361e+02 +9.9933176e-01 -3.2730651e-03 +9.8777595e-01 -1.1402771e-02 +1.0107621e+00 +4.7980461e-03
+5.7487850e+02 +1.0012126e+00 -2.7632052e-03 +9.8918208e-01 -1.1496296e-02 +1.0133612e+00 +5.7832897e-03
+6.1642337e+02 +1.0005349e+00 -4.2084449e-03 +9.8836670e-01 -1.3184892e-02 +1.0128948e+00 +4.7600503e-03
+6.6097057e+02 +9.9973692e-01 -4.4906109e-03 +9.8763301e-01 -1.3475061e-02 +1.0120143e+00 +4.4368095e-03
+7.0873708e+02 +9.9935594e-01 -4.5479589e-03 +9.8729184e-01 -1.3562160e-02 +1.0117534e+00 +4.5919838e-03
+7.5995554e+02 +9.9928405e-01 -4.6017870e-03 +9.8712877e-01 -1.3859084e-02 +1.0119246e+00 +4.8539381e-03
+8.1487542e+02 +9.9928231e-01 -4.7158823e-03 +9.8692694e-01 -1.4323229e-02 +1.0122969e+00 +5.0230254e-03
+8.7376420e+02 +9.9935885e-01 -4.9487631e-03 +9.8668444e-01 -1.4990328e-02 +1.0128368e+00 +5.1725759e-03
+9.3690871e+02 +9.9954481e-01 -5.3426395e-03 +9.8651911e-01 -1.6028895e-02 +1.0134533e+00 +5.3157194e-03
+1.0046165e+03 +9.9946852e-01 -5.8971181e-03 +9.8597371e-01 -1.7058756e-02 +1.0138627e+00 +5.3609475e-03
+1.0772173e+03 +9.9951323e-01 -6.3623554e-03 +9.8554734e-01 -1.8157069e-02 +1.0143286e+00 +5.5808803e-03
