# Frequency    Median Mag     Phase (Rad)    -1 Sigma Mag   -1 Sigma Phase +1 Sigma Mag   +1 Sigma Phase
+1.8824679e+01 +1.0134516e+00 +1.3529821e-02 +9.8754370e-01 -1.0880385e-02 +1.0386856e+00 +3.7588927e-02
+2.0185086e+01 +1.0142985e+00 +1.1376235e-02 +9.9026602e-01 -1.1188466e-02 +1.0382546e+00 +3.3770497e-02
+2.1643806e+01 +1.0149408e+00 +9.4564836e-03 +9.9242368e-01 -1.1623231e-02 +1.0373508e+00 +3.0552916e-02
+2.3207944e+01 +1.0149856e+00 +7.7241603e-03 +9.9365884e-01 -1.2048201e-02 +1.0364713e+00 +2.7675771e-02
+2.4885118e+01 +1.0145845e+00 +6.0891014e-03 +9.9439249e-01 -1.2541893e-02 +1.0353368e+00 +2.5048370e-02
+2.6683496e+01 +1.0140119e+00 +4.4964017e-03 +9.9450965e-01 -1.3206401e-02 +1.0340040e+00 +2.2806367e-02
+2.8611838e+01 +1.0134289e+00 +3.2638000e-03 +9.9475518e-01 -1.3639384e-02 +1.0325611e+00 +2.1016759e-02
+3.0679536e+01 +1.0126422e+00 +2.2907714e-03 +9.9458100e-01 -1.4126912e-02 +1.0310051e+00 +1.9339715e-02
+3.2896661e+01 +1.0116487e+00 +1.5318826e-03 +9.9410003e-01 -1.4448539e-02 +1.0296204e+00 +1.7833773e-02
+3.5274012e+01 +1.0105084e+00 +9.1251563e-04 +9.9373251e-01 -1.4705660e-02 +1.0281120e+00 +1.6604585e-02
+3.7823166e+01 +1.0094292e+00 +2.4639492e-04 +9.9309643e-01 -1.4853598e-02 +1.0265281e+00 +1.5537588e-02
+4.0556542e+01 +1.0083463e+00 -2.0726431e-04 +9.9240332e-01 -1.4744199e-02 +1.0251057e+00 +1.4715276e-02
+4.3487450e+01 +1.0071468e+00 -5.3941201e-04 +9.9161258e-01 -1.4733851e-02 +1.0236019e+00 +1.3902780e-02
+4.6630167e+01 +1.0060315e+00 -7.7129492e-04 +9.9075587e-01 -1.4522395e-02 +1.0220224e+00 +1.3237945e-02
+5.0000000e+01 +1.0049769e+00 -9.7190627e-04 +9.8996036e-01 -1.4340434e-02 +1.0207303e+00 +1.2699495e-02
+5.3613361e+01 +1.0038904e+00 -1.1359378e-03 +9.8918968e-01 -1.4020087e-02 +1.0194333e+00 +1.2304168e-02
+5.7487850e+01 +1.0029151e+00 -1.0734888e-03 +9.8845629e-01 -1.3580866e-02 +1.0181461e+00 +1.2014892e-02
+6.1642337e+01 +1.0020624e+00 -9.7734696e-04 +9.8782167e-01 -1.3145731e-02 +1.0168979e+00 +1.1768050e-02
+6.6097057e+01 +1.0012568e+00 -8.5404937e-04 +9.8722666e-01 -1.2667063e-02 +1.0157171e+00 +1.1659772e-02
+7.0873708e+01 +1.0004665e+00 -6.1756798e-04 +9.8668466e-01 -1.2217163e-02 +1.0148196e+00 +1.1471963e-02
+7.5995554e+01 +9.9985248e-01 -3.1667046e-04 +9.8630130e-01 -1.1603831e-02 +1.0138860e+00 +1.1364630e-02
+8.1487542e+01 +9.9929802e-01 +9.2417194e-05 +9.8598055e-01 -1.0945498e-02 +1.0130717e+00 +1.1335194e-02
+8.7376420e+01 +9.9889096e-01 +3.8765979e-04 +9.8574351e-01 -1.0259189e-02 +1.0123034e+00 +1.1221605e-02
+9.3690871e+01 +9.9856706e-01 +6.9972217e-04 +9.8567026e-01 -9.6061778e-03 +1.0116855e+00 +1.1062430e-02
+1.0046165e+02 +9.9832957e-01 +1.0808456e-03 +9.8578065e-01 -8.9739144e-03 +1.0111625e+00 +1.1099014e-02
+1.0772173e+02 +9.9824672e-01 +1.4749380e-03 +9.8594711e-01 -8.3633176e-03 +1.0107521e+00 +1.1149210e-02
+1.1550649e+02 +9.9830316e-01 +1.7825213e-03 +9.8619736e-01 -7.6315870e-03 +1.0104575e+00 +1.1040232e-02
+1.2385382e+02 +9.9843024e-01 +2.0489934e-03 +9.8652926e-01 -7.0503635e-03 +1.0103045e+00 +1.0984524e-02
+1.3280439e+02 +9.9861073e-01 +2.2164517e-03 +9.8692369e-01 -6.5037171e-03 +1.0102249e+00 +1.0809871e-02
+1.4240179e+02 +9.9885766e-01 +2.3375233e-03 +9.8739233e-01 -6.0810417e-03 +1.0103770e+00 +1.0616549e-02
+1.5269278e+02 +9.9919654e-01 +2.3703102e-03 +9.8777876e-01 -5.7888293e-03 +1.0105354e+00 +1.0356236e-02
+1.6372746e+02 +9.9951441e-01 +2.2957163e-03 +9.8824572e-01 -5.5838556e-03 +1.0107247e+00 +9.9836461e-03
+1.7555959e+02 +9.9972102e-01 +2.0194570e-03 +9.8874999e-01 -5.5491748e-03 +1.0108204e+00 +9.6094134e-03
+1.8824679e+02 +9.9989448e-01 +1.7684220e-03 +9.8905563e-01 -5.5774705e-03 +1.0110116e+00 +9.1069709e-03
+2.0185086e+02 +9.9992872e-01 +1.4703705e-03 +9.8926754e-01 -5.7323457e-03 +1.0110271e+00 +8.7230112e-03
+2.1643806e+02 +9.9997471e-01 +1.2440257e-03 +9.8918866e-01 -6.0078410e-03 +1.0110235e+00 +8.5006158e-03
+2.3207944e+02 +9.9998239e-01 +1.0688311e-03 +9.8908885e-01 -6.2529542e-03 +1.0110707e+00 +8.4058248e-03
+2.4885118e+02 +9.9991061e-01 +1.1960969e-03 +9.8887103e-01 -6.3335011e-03 +1.0110921e+00 +8.6843830e-03
+2.6683496e+02 +1.0001105e+00 +1.3761991e-03 +9.8882813e-01 -6.2711474e-03 +1.0113974e+00 +9.2056849e-03
+2.8611838e+02 +1.0006215e+00 +1.7688218e-03 +9.8907894e-01 -6.3239522e-03 +1.0122820e+00 +9.9657497e-03
+3.0679536e+02 +1.0018032e+00 +1.9083309e-03 +9.8983156e-01 -6.8310706e-03 +1.0139612e+00 +1.0541601e-02
+3.2896661e+02 +1.0026836e+00 -1.8739234e-03 +9.9065634e-01 -1.0893623e-02 +1.0151875e+00 +6.9432899e-03
+3.5274012e+02 +1.0033368e+00 +6.5126735e-04 +9.9150069e-01 -8.3408512e-03 +1.0157351e+00 +9.2782354e-03
+3.7823166e+02 +1.0039514e+00 -1.6998285e-03 +9.9178719e-01 -1.1149051e-02 +1.0166966e+00 +7.4141225e-03
+4.0556542e+02 +1.0028952e+00 -3.8765737e-03 +9.9032955e-01 -1.3545194e-02 +1.0159965e+00 +5.9185667e-03
+4.3487450e+02 +1.0010671e+00 -4.7903397e-03 +9.8837643e-01 -1.4523657e-02 +1.0143693e+00 +5.2273454e-03
+4.6630167e+02 +9.9810478e-01 -3.6900376e-03 +9.8675740e-01 -1.1794668e-02 +1.0097031e+00 +4.3074192e-03
+5.0000000e+02 +1.0002258e+00 -2.6742861e-03 +9.8898857e-01 -1.0679806e-02 +1.0118743e+00 +5.1645557e-03
+5.3613361e+02 +9.9963152e-01 -3.3144667e-03 +9.8821257e-01 -1.1601529e-02 +1.0114090e+00 +4.6923071e-03
+5.7487850e+02 +1.0016700e+00 -2.8691509e-03 +9.8977147e-01 -1.1737164e-02 +1.0138102e+00 +5.6758602e-03
+6.1642337e+02 +1.0009369e+00 -4.3233310e-03 +9.8877377e-01 -1.3527225e-02 +1.0135055e+00 +4.6457702e-03
+6.6097057e+02 +1.0001214e+00 -4.5169432e-03 +9.8801113e-01 -1.3817568e-02 +1.0126745e+00 +4.4416261e-03
+7.0873708e+02 +9.9979258e-01 -4.4384556e-03 +9.8760480e-01 -1.3865758e-02 +1.0123703e+00 +4.6357152e-03
+7.5995554e+02 +9.9980565e-01 -4.4072135e-03 +9.8744722e-01 -1.4102083e-02 +1.0125416e+00 +4.8771972e-03
+8.1487542e+02 +9.9988555e-01 -4.5409704e-03 +9.8721959e-01 -1.4556175e-02 +1.0128327e+00 +5.1045284e-03
+8.7376420e+02 +9.9997365e-01 -4.7956885e-03 +9.8691008e-01 -1.5229416e-02 +1.0133075e+00 +5.3401799e-03
+9.3690871e+02 +1.0003372e+00 -5.2061458e-03 +9.8660058e-01 -1.6176194e-02 +1.0139812e+00 +5.4031329e-03
+1.0046165e+03 +1.0001941e+00 -5.6565673e-03 +9.8617648e-01 -1.7225156e-02 +1.0142925e+00 +5.3742525e-03
+1.0772173e+03 +1.0002617e+00 -6.0385289e-03 +9.8566556e-01 -1.8137602e-02 +1.0147763e+00 +5.5117641e-03
