# Frequency    Median Mag     Phase (Rad)    -1 Sigma Mag   -1 Sigma Phase +1 Sigma Mag   +1 Sigma Phase
+1.8824679e+01 +1.0013379e+00 -5.4782222e-03 +9.8834874e-01 -1.6305364e-02 +1.0146639e+00 +4.8443171e-03
+2.0185086e+01 +1.0006263e+00 -5.3986216e-03 +9.8778575e-01 -1.6145273e-02 +1.0138640e+00 +4.8138376e-03
+2.1643806e+01 +1.0001019e+00 -5.2979539e-03 +9.8711308e-01 -1.5946139e-02 +1.0133157e+00 +4.9617545e-03
+2.3207944e+01 +9.9966733e-01 -5.1728218e-03 +9.8658844e-01 -1.5710233e-02 +1.0129492e+00 +5.1908164e-03
+2.4885118e+01 +9.9933238e-01 -5.0014366e-03 +9.8607784e-01 -1.5363702e-02 +1.0126464e+00 +5.6007003e-03
+2.6683496e+01 +9.9907147e-01 -4.7444309e-03 +9.8580510e-01 -1.5044331e-02 +1.0122828e+00 +5.9375959e-03
+2.8611838e+01 +9.9890772e-01 -4.4316665e-03 +9.8562736e-01 -1.4770716e-02 +1.0122136e+00 +6.2254405e-03
+3.0679536e+01 +9.9881825e-01 -4.0160551e-03 +9.8542319e-01 -1.4477844e-02 +1.0121027e+00 +6.6614115e-03
+3.2896661e+01 +9.9882051e-01 -3.7382997e-03 +9.8537403e-01 -1.4362095e-02 +1.0120734e+00 +6.8709385e-03
+3.5274012e+01 +9.9881930e-01 -3.4409162e-03 +9.8536292e-01 -1.4237980e-02 +1.0120376e+00 +7.3239593e-03
+3.7823166e+01 +9.9893078e-01 -3.1864942e-03 +9.8547781e-01 -1.4045374e-02 +1.0124529e+00 +7.5644430e-03
+4.0556542e+01 +9.9905189e-01 -2.9789271e-03 +9.8567998e-01 -1.4029665e-02 +1.0127354e+00 +7.9450387e-03
+4.3487450e+01 +9.9911297e-01 -2.8263218e-03 +9.8576196e-01 -1.4044104e-02 +1.0128840e+00 +8.1269463e-03
+4.6630167e+01 +9.9934821e-01 -2.7377807e-03 +9.8569320e-01 -1.4103394e-02 +1.0130975e+00 +8.4321219e-03
+5.0000000e+01 +9.9953163e-01 -2.6090872e-03 +9.8586479e-01 -1.4384246e-02 +1.0133785e+00 +8.6374987e-03
+5.3613361e+01 +9.9963901e-01 -2.6640827e-03 +9.8587344e-01 -1.4489297e-02 +1.0135274e+00 +8.9007480e-03
+5.7487850e+01 +9.9972741e-01 -2.6301904e-03 +9.8565667e-01 -1.4763067e-02 +1.0136974e+00 +9.1869931e-03
+6.1642337e+01 +9.9968926e-01 -2.5069504e-03 +9.8559780e-01 -1.4977447e-02 +1.0140351e+00 +9.2693444e-03
+6.6097057e+01 +9.9975668e-01 -2.4514558e-03 +9.8555203e-01 -1.5315726e-02 +1.0141611e+00 +9.6064486e-03
+7.0873708e+01 +9.9966894e-01 -2.3799421e-03 +9.8527143e-01 -1.5394105e-02 +1.0141051e+00 +9.9815289e-03
+7.5995554e+01 +9.9946169e-01 -2.2801490e-03 +9.8496164e-01 -1.5475643e-02 +1.0143151e+00 +1.0386006e-02
+8.1487542e+01 +9.9938159e-01 -1.9528665e-03 +9.8465013e-01 -1.5511032e-02 +1.0142726e+00 +1.0759374e-02
+8.7376420e+01 +9.9926869e-01 -1.6079640e-03 +9.8436590e-01 -1.5225917e-02 +1.0142337e+00 +1.1266388e-02
+9.3690871e+01 +9.9912940e-01 -1.2089007e-03 +9.8415059e-01 -1.4892534e-02 +1.0141140e+00 +1.1947389e-02
+1.0046165e+02 +9.9898536e-01 -6.5919591e-04 +9.8390417e-01 -1.4272587e-02 +1.0141195e+00 +1.2709914e-02
+1.0772173e+02 +9.9909729e-01 +4.9847333e-05 +9.8372091e-01 -1.3776545e-02 +1.0143538e+00 +1.3667802e-02
+1.1550649e+02 +9.9926983e-01 +9.6691563e-04 +9.8369496e-01 -1.3079417e-02 +1.0148613e+00 +1.4503457e-02
+1.2385382e+02 +9.9975019e-01 +1.8576643e-03 +9.8369976e-01 -1.2379844e-02 +1.0157413e+00 +1.5674067e-02
+1.3280439e+02 +1.0004569e+00 +2.8008707e-03 +9.8411182e-01 -1.1608199e-02 +1.0168271e+00 +1.7031187e-02
+1.4240179e+02 +1.0014333e+00 +3.5498210e-03 +9.8462073e-01 -1.1032402e-02 +1.0182926e+00 +1.8107054e-02
+1.5269278e+02 +1.0026459e+00 +4.1064581e-03 +9.8563343e-01 -1.0763956e-02 +1.0199097e+00 +1.8822397e-02
+1.6372746e+02 +1.0041607e+00 +4.0745989e-03 +9.8681309e-01 -1.0832708e-02 +1.0217079e+00 +1.9109445e-02
+1.7555959e+02 +1.0053647e+00 +3.6980206e-03 +9.8821742e-01 -1.1287819e-02 +1.0229386e+00 +1.8255370e-02
+1.8824679e+02 +1.0061438e+00 +2.7333689e-03 +9.8944954e-01 -1.1445054e-02 +1.0233979e+00 +1.6951876e-02
+2.0185086e+02 +1.0064063e+00 +1.8891400e-03 +9.9036477e-01 -1.1333237e-02 +1.0230234e+00 +1.5170009e-02
+2.1643806e+02 +1.0063161e+00 +1.1727435e-03 +9.9105793e-01 -1.1258999e-02 +1.0218295e+00 +1.3659032e-02
+2.3207944e+02 +1.0060489e+00 +8.8844877e-04 +9.9151578e-01 -1.0907447e-02 +1.0207026e+00 +1.2516371e-02
+2.4885118e+02 +1.0056819e+00 +7.8008334e-04 +9.9184925e-01 -1.0243804e-02 +1.0198151e+00 +1.1664671e-02
+2.6683496e+02 +1.0053839e+00 +8.2724901e-04 +9.9213817e-01 -9.6027009e-03 +1.0190404e+00 +1.1162551e-02
+2.8611838e+02 +1.0051083e+00 +8.7467275e-04 +9.9230103e-01 -9.0133906e-03 +1.0183083e+00 +1.0832996e-02
+3.0679536e+02 +1.0048099e+00 +9.5025153e-04 +9.9229730e-01 -8.5757535e-03 +1.0177351e+00 +1.0531571e-02
+3.2896661e+02 +1.0032144e+00 +3.6200206e-04 +9.9206487e-01 -7.6410632e-03 +1.0148012e+00 +8.5260231e-03
+3.5274012e+02 +1.0044464e+00 +1.4439898e-03 +9.9221812e-01 -7.9572165e-03 +1.0173882e+00 +1.1016008e-02
+3.7823166e+02 +1.0040290e+00 +1.6254558e-03 +9.9204509e-01 -7.4391659e-03 +1.0166104e+00 +1.0986110e-02
+4.0556542e+02 +1.0035562e+00 +1.9196998e-03 +9.9170321e-01 -7.0032219e-03 +1.0159006e+00 +1.1134437e-02
+4.3487450e+02 +1.0028322e+00 +2.4298290e-03 +9.9116610e-01 -6.4056791e-03 +1.0149393e+00 +1.1535238e-02
+4.6630167e+02 +1.0018875e+00 +4.2554217e-03 +9.8987141e-01 -5.1619171e-03 +1.0143404e+00 +1.3870782e-02
+5.0000000e+02 +1.0034986e+00 +4.8603061e-03 +9.9060107e-01 -5.6464001e-03 +1.0168281e+00 +1.5611596e-02
+5.3613361e+02 +1.0042576e+00 +6.6750493e-03 +9.9017666e-01 -5.4736711e-03 +1.0188002e+00 +1.8925698e-02
+5.7487850e+02 +1.0045975e+00 +4.6652219e-03 +9.9107808e-01 -6.8692678e-03 +1.0186629e+00 +1.6317256e-02
+6.1642337e+02 +1.0036897e+00 +4.6041422e-03 +9.9039313e-01 -6.6908715e-03 +1.0176467e+00 +1.6201554e-02
+6.6097057e+02 +1.0031397e+00 +5.0724155e-03 +9.8968483e-01 -6.4790400e-03 +1.0172474e+00 +1.6931969e-02
+7.0873708e+02 +1.0027114e+00 +5.7030289e-03 +9.8907146e-01 -6.1991930e-03 +1.0172286e+00 +1.7956029e-02
+7.5995554e+02 +1.0023788e+00 +6.4489562e-03 +9.8835184e-01 -6.1821319e-03 +1.0175479e+00 +1.9373457e-02
+8.1487542e+02 +1.0022838e+00 +7.2584940e-03 +9.8760348e-01 -6.3514279e-03 +1.0180212e+00 +2.0900492e-02
+8.7376420e+02 +1.0024461e+00 +8.0929822e-03 +9.8700839e-01 -6.5539405e-03 +1.0189350e+00 +2.2758017e-02
+9.3690871e+02 +1.0032889e+00 +8.3882439e-03 +9.8712187e-01 -7.4120131e-03 +1.0207629e+00 +2.4022310e-02
+1.0046165e+03 +1.0027082e+00 +8.1816810e-03 +9.8631621e-01 -7.8962872e-03 +1.0202299e+00 +2.4171006e-02
+1.0772173e+03 +1.0020019e+00 +8.3105954e-03 +9.8536642e-01 -8.5876645e-03 +1.0199575e+00 +2.4984512e-02
